-65.4555050668552,-38.6233295598645,26.8321755069905,74.9560649977945,16.0782281700425,-90.3345034566245,-81.7805674679402,-54.7192552910884,-54.7169647400591,52.0394173133596,-46.1438402869229,-5.89557702643699,97,103,93,871,93,93,97,89,93,97,74,93,294,281,249,232,234,249,270,285,253,935,199,271,404,400,395,331,337,397,378,403,403,1133,393,398,608,604,632,615,488,600,583,605,619,1407,616,604,456,463,453,456,452,453,456,449,453,456,433,453,
-65.4555050668552,-38.6233295598645,26.8321755069905,74.9560649977945,16.0782281700425,-90.3345034566245,-81.7805674679402,-54.7192552910884,-54.7169647400591,52.0394173133596,-46.1438402869229,-5.89557702643699,896,902,892,1680,892,892,896,888,892,896,872,892,320,310,306,276,269,305,282,305,302,1043,279,308,425,417,448,430,432,413,430,420,423,1134,430,409,693,694,725,701,661,691,672,694,696,1414,691,698,1255,1262,1252,1255,1251,1252,1255,1248,1252,1255,1231,1252,
-65.4555050668552,-38.6233295598645,26.8321755069905,74.9560649977945,16.0782281700425,-90.3345034566245,-81.7805674679402,-54.7192552910884,-54.7169647400591,52.0394173133596,-46.1438402869229,-5.89557702643699,1685,1692,1682,2412,1680,1682,1685,1677,1682,1685,1660,1682,356,352,380,299,301,348,331,352,321,1056,330,352,455,451,475,460,468,448,455,451,452,1218,462,452,741,745,763,779,685,747,725,749,747,1490,733,752,2035,2043,2031,2035,2030,2031,2035,2026,2031,2035,2010,2031,
-65.4555050668552,-38.6233295598645,26.8321755069905,74.9560649977945,16.0782281700425,-90.3345034566245,-81.7805674679402,-54.7192552910884,-54.7169647400591,52.0394173133596,-46.1438402869229,-5.89557702643699,2470,2479,2466,3436,2466,2466,2470,2462,2466,2470,2446,2466,1090,1051,1048,1030,1032,1101,1087,1083,352,1098,1062,1052,479,475,525,486,488,475,500,475,475,1220,523,477,1435,1433,1399,1413,1382,1399,1413,1418,1421,1499,1439,1432,2826,2835,2822,2826,2822,2822,2826,2818,2822,2826,2801,2822,
-65.4555050668552,-38.6233295598645,26.8321755069905,74.9560649977945,16.0782281700425,-90.3345034566245,-81.7805674679402,-54.7192552910884,-54.7169647400591,52.0394173133596,-46.1438402869229,-5.89557702643699,3266,3274,3262,4085,3261,3262,3266,3258,3262,3266,3241,3262,1118,1095,1088,1032,1060,1104,1103,1102,1070,1101,1083,1090,505,522,1196,1129,1132,519,1198,521,519,1246,1196,528,1495,1502,1514,1501,1462,1489,1491,1495,1496,1571,1491,1505,3625,3632,3621,3625,3620,3621,3625,3618,3621,3625,3601,3621,
-65.4555050668552,-38.6233295598645,26.8321755069905,74.9560649977945,16.0782281700425,-90.3345034566245,-81.7805674679402,-54.7192552910884,-54.7169647400591,52.0394173133596,-46.1438402869229,-5.89557702643699,4065,4072,4061,4880,4060,4061,4065,4058,4061,4065,4042,4061,1155,1111,1147,1071,1099,1147,1161,1151,1105,1123,1129,1108,1192,1200,1208,1228,1230,1196,1212,1202,1200,1251,1227,1199,1543,1554,1578,1577,1483,1543,1545,1545,1546,1578,1532,1559,4425,4432,4421,4425,4421,4421,4425,4418,4421,4425,4402,4421,
-65.4555050668552,-38.6233295598645,26.8321755069905,74.9560649977945,16.0782281700425,-90.3345034566245,-81.7805674679402,-54.7192552910884,-54.7169647400591,52.0394173133596,-46.1438402869229,-5.89557702643699,4860,4866,4856,5660,4856,4856,4860,4852,4856,4860,4836,4856,1870,1150,1837,1097,1692,1884,1872,1864,1151,1845,1820,1151,1222,1218,1241,1257,1266,1213,1250,1222,1223,1257,1261,1214,2211,2192,2188,2063,2065,2188,2177,2191,2201,2196,2241,2191,5214,5219,5210,5214,5210,5210,5214,5207,5210,5214,5190,5210,
-65.4555050668552,-38.6233295598645,26.8321755069905,70.1661860664569,11.325847730557,-90.3345034566245,-81.7805674679402,-54.7192552910884,-54.7169647400591,52.0394173133596,-46.1438402869229,-5.89557702643699,5640,5646,5636,6401,5636,5636,5640,5632,5636,5640,5616,5636,1897,1840,1872,1754,1752,1936,1883,1884,1862,1885,1864,1840,1254,1249,1268,1283,1287,1247,1275,1250,1251,1262,1317,1247,2272,2275,2285,2282,2245,2267,2269,2272,2275,2274,2270,2278,5986,5992,5982,5986,5982,5982,5986,5978,5982,5986,5961,5982,
-65.4555050668552,-38.6233295598645,26.8321755069905,65.3591864551339,6.53944997410444,-90.3345034566245,-83.4685747616274,-54.7192552910884,-54.7169647400591,52.0394173133596,-46.1438402869229,-5.89557702643699,6408,6416,6404,7133,6404,6404,6408,6401,6404,6408,6384,6404,1944,1879,1936,1853,1887,2622,1917,1939,1885,1912,1951,1877,1278,1273,1318,1909,1953,1273,1320,1274,1274,1917,1968,1271,2316,2338,2363,2365,2271,2324,2327,2331,2331,2360,2291,2349,6751,6760,6747,6751,6747,6747,6751,6744,6747,6751,6726,6747,
-65.4555050668552,-38.6233295598645,26.8321755069905,61.1887233570286,2.22276869507761,-90.3345034566245,-90.6768647581385,-54.7192552910884,-58.5696158575674,52.0394173133596,-46.1438402869229,-5.89557702643699,7183,7192,7180,7950,7179,7180,7183,7176,7180,7183,7159,7180,2674,1939,2622,1885,2606,2675,2635,2652,1941,2534,2543,1939,1304,1323,1975,2006,2009,1318,1977,1320,1320,2002,2007,1324,3012,3004,2945,2854,2857,2973,2986,2997,3003,2833,2996,2979,7535,7544,7532,7535,7531,7532,7535,7529,7532,7535,7512,7532,
-65.4555050668552,-38.6233295598645,26.8321755069905,58.2772354236083,-0.876133549143127,-90.3345034566245,-95.2004330617371,-54.7192552910884,-61.2974495657845,52.0394173133596,-46.1438402869229,-5.89557702643699,7972,7980,7968,8758,7968,7968,7972,7966,7968,7972,7948,7968,2689,2649,2662,2603,2627,2721,2674,2672,2657,2585,2577,2626,1969,1981,1987,2035,2040,1974,1993,1981,1981,2030,2042,1980,3067,3081,3064,3075,3045,3059,3062,3067,3069,3067,3067,3067,8329,8336,8325,8329,8324,8325,8329,8322,8325,8329,8305,8325,
-65.4555050668552,-38.6233295598645,26.8321755069905,56.5291624749038,-2.8420659990194,-90.3345034566245,-100.894016329754,-54.7192552910884,-63.6802493614003,52.0394173133596,-46.1438402869229,-5.89557702643699,8765,8772,8761,9413,8760,8761,8765,8758,8761,8765,8742,8761,2729,2697,2689,2645,2673,3418,2734,2725,2685,2665,2706,2677,2004,2000,2023,2063,2065,1991,2029,1999,2002,2041,2094,1994,3123,3143,3145,3150,3057,3115,3116,3120,3120,3145,3068,3132,9121,9128,9117,9121,9116,9117,9121,9114,9117,9121,9098,9117,
-65.4555050668552,-38.6233295598645,26.8321755069905,56.22474500376,-2.70905394138142,-90.3345034566245,-104.390613848126,-54.7192552910884,-64.5936602425638,52.0394173133596,-46.1438402869229,-5.89557702643699,9687,9695,9685, ,9681,9685,9687,9690,9685,9687,9545,9685,3330,2738,3430,2670,3401,3440,3464,3428,2725,3282,3377,2725,2034,2029,2047,2704,2766,2025,2054,2029,2030,2703,2132,2027,3784,3785,3769,3781,3752,3769,3781,3777,3790,3630,3173,3772, , , , , , , , , , , , ,
-65.4555050668552,-38.6233295598645,26.8321755069905,57.1050293847203,-1.88152644110394,-90.3345034566245,-104.078339203075,-54.7192552910884,-64.2918363838462,52.0394173133596,-46.1438402869229,-5.89557702643699, , , , , , , , , , , , ,3432,3434,3461,3398,3430,3517,3472,3473,3427,3351,3408,3426,2057,2052,2097,2798,2781,2052,2135,2053,2053,2741,2747,2050,3869,3867,3854,3872,3830,3860,3861,3867,3868,3868,3807,3864, , , , , , , , , , , , ,
-65.4555050668552,-38.6233295598645,26.8321755069905,58.0799390515736,-1.62342516206427,-90.3345034566245,-102.012778316605,-54.7192552910884,-63.4070308269358,52.0394173133596,-46.1438402869229,-5.89557702643699, , , , , , , , , , , , ,3484,3437,3517,3443,3468,4250,3529,3520,3481,4172,3469,3465,2081,2096,2695,2826,2800,2102,2768,2098,2098,2821,2758,2097,3915,3921,3931,3945,3895,3912,3916,3916,3915,3941,3869,3923, , , , , , , , , , , , ,
-65.4555050668552,-38.5409738833562,26.9145311834989,59.1083784701441,-0.813974059550894,-90.3345034566245,-99.5964058713865,-54.7192552910884,-62.1913649054129,51.9982394751054,-46.1850181251771,-5.81322134992862, , , , , , , , , , , , ,3525,3468,4218,3465,4043,4276,4039,4262,3521,4219,4284,3520,2772,2780,2815,2854,2832,2765,2820,2771,2772,2833,2834,2766,4594,4583,4569,4581,4553,4569,4581,4581,4583,4431,3906,4571, , , , , , , , , , , , ,
-65.4555050668552,-36.9658692372191,28.489635829636,60.5649602487377,0.434737668334073,-90.3345034566245,-96.2279661165649,-54.7192552910884,-60.7777111725782,51.2106871520368,-46.9725704482457,-4.23811670379152, , , , , , , , , , , , ,4264,3533,4258,4198,4269,4317,4102,4282,4265,4260,4292,4231,2792,2780,2839,3501,2857,2781,2845,2821,2792,3498,2889,2774,4667,4670,4683,4674,4636,4659,4660,4667,4666,4668,4607,4673, , , , , , , , , , , , ,
-65.4555050668552,-35.6165888179542,29.8389162489009,62.3010009541469,1.9795501946401,-90.3345034566245,-92.9663617179066,-54.7192552910884,-59.0868941195318,50.5360469424044,-47.6472106578781,-2.88883628452666, , , , , , , , , , , , ,4289,4236,4317,4243,4852,5063,4329,4319,4286,4924,4331,4264,2825,2833,2889,3597,3556,2817,2889,2844,2821,3593,3561,2818,4714,4725,4765,4745,4712,4716,4716,4720,4719,4740,4667,4736, , , , , , , , , , , , ,
-65.4555050668552,-33.5867769414458,31.8687281254093,64.2469427561478,3.68859676207649,-90.3345034566245,-90.115927031579,-54.7192552910884,-57.417218143042,49.5211410041502,-48.6621165961323,-0.859024408018255, , , , , , , , , , , , ,4324,4279,5012,4265,4925,5111,5050,5043,4320,4962,5061,4319,2849,2858,3568,3626,3581,2844,3568,2888,2844,3620,3597,2842,5376,5377,5363,5244,5246,5363,5377,5372,5377,5219,4702,5367, , , , , , , , , , , , ,
-65.4555050668552,-32.2413932733963,33.2141117934587,66.2255250065433,5.44501818319643,-90.3345034566245,-86.7985270520653,-54.7192552910884,-55.884042328464,48.8484491701254,-49.334808430157,0.48635926003121, , , , , , , , , , , , ,5015,4331,5050,4835,5063,5633,5063,5065,5045,5055,5080,5016,2873,2900,3580,3654,3600,2892,3580,3571,2886,3630,3631,2888,5450,5450,5481,5460,5416,5446,5447,5449,5457,5450,5383,5448, , , , , , , , , , , , ,
-65.3991371237626,-31.0498875412887,34.3492495824738,68.0319550785046,7.14929701364682,-90.3345034566245,-84.2256719966345,-54.7192552910884,-54.7169647400591,48.2245123325253,-49.8741933531183,1.64968102059257, , , , , , , , , , , , ,5075,5026,5111,5061,5808,5891,5125,5115,5063,5704,5125,5057,3560,3572,3611,4326,3635,3566,3619,3588,3572,4300,3684,3571,5502,5511,5559,5541,5447,5504,5508,5507,5507,5535,5450,5519, , , , , , , , , , , , ,
-63.9475645035684,-30.7156117514647,33.2319527521035,69.6593801415907,8.72043040405027,-91.1443218963526,-81.7805674679402,-54.7192552910884,-54.7169647400591,47.3315881275162,-48.589758627836,1.25817050031941, , , , , , , , , , , , ,5119,5070,5787,5741,5826,6605,6593,5817,5115,5761,5678,5115,3595,3591,3637,4398,3657,3582,3644,3619,3593,4391,3688,3587,6164,6147,6111,6156,6127,6143,6921,6147,6152,6119,5492,6124, , , , , , , , , , , , ,
-61.8707733567016,-30.6212004162131,31.2495729404884,71.0654160338551,10.0961543096524,-91.7079102080743,-81.7805674679402,-54.7192552910884,-54.7169647400591,46.245986886457,-46.5601731485951,0.314186262137699, , , , , , , , , , , , ,5838,5125,5825,5804,5875,6660,6623,5835,5819,5762,5781,5787,3624,3619,3702,4427,4361,3617,3753,3643,3620,4420,4360,3616,6224,6226,6238,6233,6187,6217,7006,6223,6226,6224,6179,6224, , , , , , , , , , , , ,
-60.6900171433494,-30.6653647328435,30.0246524105058,72.1969159987526,11.2324179975534,-92.8077972093041,-81.7805674679402,-54.7192552910884,-54.7169647400591,45.6776909380961,-45.3573347769277,-0.320356161168857, , , , , , , , , , , , ,5844,5798,5891,5840,6441,7387,6660,5895,5838,5835,5873,5824,3648,3642,4362,4455,4381,3643,4367,3685,3643,4431,4398,3640,6271,6276,6287,6320,6242,6272,7059,6272,6273,6315,6223,6275, , , , , , , , , , , , ,
-58.9029436720799,-30.718712499689,28.1842311723907,73.1031086581901,12.1023063397688,-93.2045721054635,-81.7805674679402,-54.7192552910884,-54.7169647400591,44.8108280858841,-43.5435874222353,-1.26724066364917, , , , , , , , , , , , ,5867,5832,6549,6382,6484,7435,7343,6577,5895,6504,6576,5891,3672,3750,4363,5091,4401,3688,4379,4371,3684,5095,4431,3744,6932,6916,6912,6924,6912,6894,7676,6917,6925,6758,6260,6912, , , , , , , , , , , , ,
-57.7568274404503,-31.5296224704673,26.2272049699829,73.8170693640395,12.6946085095795,-93.1486573835439,-81.7805674679402,-54.7192552910884,-54.7169647400591,44.6432249554585,-41.9920162052167,-2.6512087502422, , , , , , , , , , , , ,6590,5873,6590,6571,6628,8128,7374,6603,6581,6541,6615,6549,4367,4371,4411,5187,4436,4365,4419,4420,4372,5182,4504,4368,6990,6993,7002,7000,6979,6985,7710,6990,6993,6991,6951,6996, , , , , , , , , , , , ,
-57.4923910941168,-32.6702190607911,24.8221720333255,74.3329903565719,13.0122073474633,-93.68079570747,-81.7805674679402,-54.7192552910884,-54.7169647400591,45.0813050774536,-41.1572815637212,-3.92402351373277, , , , , , , , , , , , ,6613,6544,6660,6608,7339,8178,7385,6663,6606,6603,6643,6593,4394,4419,4437,5217,4458,4382,4444,4443,4392,5209,4531,4416,7043,7049,7057,7088,7040,7038,7771,7043,7046,7083,6989,7052, , , , , , , , , , , , ,
-57.4498204835259,-33.4028544520269,24.0469660314989,74.4895466778701,13.0703998164215,-93.9515743171528,-81.7805674679402,-54.7192552910884,-54.7169647400591,45.4263374677761,-40.7483932575125,-4.67794421026403, , , , , , , , , , , , ,6635,6598,7336,8110,7375,8227,7409,7359,6663,7247,7256,6660,4424,4442,4495,5244,5150,4417,4519,4490,4420,5219,5149,4440,7704,7685,7687,8579,7658,7687,7796,7692,7703,7694,7024,7687, , , , , , , , , , , , ,
-57.635877637341,-34.9019981281619,22.7338795091789,74.4198643438465,12.8951782762238,-93.6385872791578,-81.7805674679402,-55.9473366302339,-54.7169647400591,46.2689378827511,-40.18487857326,-6.08405930949146, , , , , , , , , , , , ,7380,6601,7374,8148,7406,8971,7424,7383,7366,7328,7302,7336,4448,4554,5153,5864,5170,4443,5158,5160,4443,5862,5188,4498,7775,7776,7760,8655,7749,7769,7828,7776,7778,7775,7719,7776, , , , , , , , , , , , ,
-58.0561567641891,-36.4145942781534,21.6415624860356,74.1602998028661,13.16341231453,-93.8500671220536,-83.0111716177801,-57.3937993906589,-55.4748248194971,47.2353755211709,-39.8488596251124,-7.38651589605891, , , , , , , , , , , , ,7396,6643,7403,8177,8128,9020,7474,7438,7389,7378,7355,7378,4567,5160,5167,5957,5189,4492,5173,5180,4487,5950,5218,5158,7827,7831,7844,8697,7829,7828,7850,7832,7831,7858,7775,7834, , , , , , , , , , , , ,
-58.7144653385423,-37.9105057858052,20.803959552737,73.7505710499276,13.3968364922678,-93.5799677638687,-85.3478306759775,-58.7022826263984,-56.3404035092581,48.3124855621734,-39.7592124456397,-8.55327311653408, , , , , , , , , , , , ,7442,7320,8128,8854,8195, ,8132,8159,7439,8068,8076,7435,5150,5179,5196,5987,5226,5155,5208,5209,5160,5982,5284,5172,8505,8497,8479,9411,8479,8479,8483,8489,8499,8335,7819,8493, , , , , , , , , , , , ,
-59.6118369642983,-38.6233295598645,20.9885074044337,73.2335674743692,12.9486702909894,-93.4333722397791,-86.823925877178,-60.7772131453211,-57.1245845729381,49.1175832620811,-40.3001721843661,-8.81741107771543, , , , , , , , , , , , ,8168,7384,8158,8940,8259, ,8176,8172,8128,8113,8113,8128,5184,5208,5225,6014,5246,5172,5233,5232,5183,6005,5320,5204,8567,8569,8544, ,8540,8563,8563,8566,8569,8568,8515,8572, , , , , , , , , , , , ,
-60.7453900374551,-38.6233295598645,22.1220604775905,72.6532996256566,12.3708236902016,-94.1751572199789,-88.3095870848198,-61.9880843208111,-57.8791074500443,49.6843597986595,-41.4337252575229,-8.25063454113703, , , , , , , , , , , , ,8194,7386,8160,8953,8761, ,8231,8227,8173,8135,8143,8166,5213,5232,5283,6626,5921,5206,5326,5337,5209,6027,5919,5229,8611,8613,8621, ,8603,8618,8617,8621,8617,8647,8567,8615, , , , , , , , , , , , ,
-62.1072656721107,-38.6233295598645,23.483936112246,72.0528852570458,11.7439273306704,-94.1628026292936,-89.7852479673194,-63.2601075969921,-58.4463195367504,50.3652976159873,-42.7956008921784,-7.56969672380924, , , , , , , , , , , , ,8231,7419,8195, ,8924, ,8955,8931,8182,8829,8943,8167,5236,5344,5922,6723,5940,5232,6717,5932,5232,6632,5959,5297,9299,9294,9272, ,9271,9272,9276,9272,9287,9127,8610,9290, , , , , , , , , , , , ,
-63.6838590152381,-38.6233295598645,25.0605294553734,71.4726418553122,11.1109808708374,-94.6232809014393,-91.1174671492648,-64.2167492400746,-59.0831446885817,51.153594287551,-44.3721942353058,-6.78140005224557, , , , , , , , , , , , ,8950,8108,8921, ,8955, ,8968,8968,8227,8869,8956,8227,5314,5930,5933,6751,5960,5277,6728,5950,5281,6715,5991,5922,9362,9367,9375, ,9328,9354,9356,9359,9362,9364,9275,9370, , , , , , , , , , , , ,
-65.4555050668552,-38.6233295598645,26.8321755069905,70.9483448361611,10.5134620794185,-95.9533053306929,-92.9672113229915,-65.1788991161208,-59.3325956488103,52.0394173133596,-46.1438402869229,-5.89557702643699, , , , , , , , , , , , ,8982,8169,8956, , , ,9024,9017,8944,8960,9001,8921,5925,5933,5973,6779,5994,5925,6768,5981,5932,6747,6061,5929,9406,9410,9426, ,9390,9408,9408,9408,9411,9440,9331,9413, , , , , , , , , , , , ,
-65.4555050668552,-38.6233295598645,26.8321755069905,70.509698823607,9.989256870449,-96.2064175963212,-93.9740258369505,-65.7636930819835,-59.474221454808,52.0394173133596,-46.1438402869229,-5.89557702643699, , , , , , , , , , , , ,9024,8187,8988, , , , , ,8973, , ,8960,5954,5979,5998,8205,6017,5940,6793,6004,5954,6758,6081,5973, , , , , , , , , , ,9370, , , , , , , , , , , , , ,
-65.4555050668552,-38.6233295598645,26.8321755069905,70.3881659757085,9.57064672433919,-96.6749950861219,-94.8217959181487,-66.2114035929326,-59.5511415110591,52.0394173133596,-46.1438402869229,-5.89557702643699, , , , , , , , , , , , , ,8239, , , , , , ,9020, , ,9020,5985,6003,6048,8302,6646,5977,6888,6051,5981,7409,6687,5997, , , , , , , , , , , , , , , , , , , , , , , , ,
-65.4555050668552,-38.6233295598645,26.8321755069905,70.6529105805205,9.28252221440034,-97.7955004142014,-95.4087434828513,-66.7651993636267,-59.3191967518589,52.0394173133596,-46.1438402869229,-5.89557702643699, , , , , , , , , , , , , ,8923, , , , , , , , , , ,6008,6115,6691,8330,6742,6003,7453,6697,6004,7469,6723,6064, , , , , , , , , , , , , , , , , , , , , , , , ,
-65.4555050668552,-38.6233295598645,26.8321755069905,70.7865817055654,9.14100245427262,-98.1163980358765,-95.988112457901,-66.6961561170808,-59.4863712415158,52.0394173133596,-46.1438402869229,-5.89557702643699, , , , , , , , , , , , , ,8964, , , , , , , , , , ,6113,6696,6702,8358,6773,6054,7461,6715,6051,7531,6759,6694, , , , , , , , , , , , , , , , , , , , , , , , ,
-65.4555050668552,-38.6233295598645,26.8321755069905,70.7280120297656,9.64216619537732,-98.9678801204128,-96.1294406613285,-66.7277410540912,-59.0212943170313,52.0394173133596,-46.1438402869229,-5.89557702643699, , , , , , , , , , , , , ,9031, , , , , , , , , , ,6696,6705,6739,9023,6800,6691,7505,6746,6698,7543,6814,6703, , , , , , , , , , , , , , , , , , , , , , , , ,
-66.8182064871983,-38.6233295598645,28.1948769273336,70.7807800823755,10.4760644773797,-99.1845393674281,-96.5510497327224,-66.2597354188316,-58.5170491058169,52.7207680235311,-47.506541707266,-5.21422631626546, , , , , , , , , , , , , , , , , , , , , , , , ,6718,6745,6764,9094,7449,6707,7530,6769,6718,8204,7471,6743, , , , , , , , , , , , , , , , , , , , , , , , ,
-69.0670628559711,-38.6233295598645,30.4437332961064,70.9348547279027,10.8727164939188,-99.3325766555921,-97.729167807869,-66.0876341969704,-57.9498952424162,53.8451962079175,-49.7553980760388,-4.08979813187906, , , , , , , , , , , , , , , , , , , , , , , , ,6750,6768,6814,9122,7511,6743,7555,6812,6746,8295,7507,6766, , , , , , , , , , , , , , , , , , , , , , , , ,
-71.3915366248262,-38.6233295598645,32.7682070649615,71.1748467223452,11.1179470909254,-100.728004083512,-98.6951597370455,-65.3307169722627,-57.5071636610947,55.007433092345,-52.0798718448939,-2.9275612474515, , , , , , , , , , , , , , , , , , , , , , , , ,6774,6900,7471,9151,7547,6769,7556,7481,6769,8324,7543,6814, , , , , , , , , , , , , , , , , , , , , , , , ,
-73.504565381279,-38.6233295598645,34.8812358214143,71.4818344814567,11.45731605068,-100.604745326073,-99.447294801207,-64.8094977021078,-57.2434322320324,56.0639474705714,-54.1929006013467,-1.87104686922512, , , , , , , , , , , , , , , , , , , , , , , , ,6851,7471,7482, ,7568,6819,7581,7530,6808,8335,7599,7471, , , , , , , , , , , , , , , , , , , , , , , , ,
-76.1948002406636,-38.6233295598645,37.5714706807989,71.8353367706532,11.869125603223,-100.384939214695,-99.9845089490993,-63.9245024406569,-56.7936966840197,57.4090649002637,-56.8831354607313,-0.5259294395328, , , , , , , , , , , , , , , , , , , , , , , , ,7482,7529,7523, ,8265,7476,7621,7554,7482,8997,7601,7527, , , , , , , , , , , , , , , , , , , , , , , , ,
-78.2108610448444,-38.6233295598645,39.5875314849797,72.2151809664818,12.3292031871604,-100.253126827313,-99.4671096789036,-63.3488412145922,-56.4630472621083,58.4170953023541,-58.8991962649121,0.482100962557584, , , , , , , , , , , , , , , , , , , , , , , , ,7502,7553,7548, ,8285,7492,7687,7598,7501,9085,8267,7551, , , , , , , , , , , , , , , , , , , , , , , , ,
-80.0475976294123,-38.6233295598645,41.4242680695477,72.6030696329073,12.8131580220141,-99.6831883577062,-98.4404188343615,-62.5160436569674,-56.2285234831998,59.3354635946381,-60.7359328494801,1.40046925484157, , , , , , , , , , , , , , , , , , , , , , , , ,7534,7640,7591, ,8304,7528,8272,8275,7531,9116,8302,7603, , , , , , , , , , , , , , , , , , , , , , , , ,
-81.8289250270504,-38.6233295598645,43.2055954671858,72.9837050699797,13.2984194343792,-99.7937280486655,-98.1558031149154,-62.0258426177264,-56.2463454946825,60.2261272934572,-62.5172602471182,2.29113295366062, , , , , , , , , , , , , , , , , , , , , , , , ,7559,8274,8271, ,8340,7554,8323,8293,7554,9127,8335,8274, , , , , , , , , , , , , , , , , , , , , , , , ,
-83.4951348401142,-38.6233295598645,44.8718052802495,73.3613055365947,13.7658209967073,-98.9299671204632,-98.0827976528973,-61.4082590219541,-56.2638662920285,61.059232199989,-64.1834700601819,3.1242378601925, , , , , , , , , , , , , , , , , , , , , , , , ,7581,8287,8286, ,8362,7602,8348,8323,7597, ,8388,8287, , , , , , , , , , , , , , , , , , , , , , , , ,
-85.9141618617406,-38.6233295598645,47.290832301876,73.726620267585,14.2005836865038,-98.2766532094298,-97.8248344866691,-61.0801225992994,-56.9078337909605,62.2687457108023,-66.6024970818084,4.33375137100572, , , , , , , , , , , , , , , , , , , , , , , , ,8271,8322,8316, ,9058,8272,8393,8347,8276, ,8390,8322, , , , , , , , , , , , , , , , , , , , , , , , ,
-87.4374871454418,-38.6233295598645,48.8141575855771,74.0300259232298,14.5926486441984,-97.3159806114022,-97.3861116174455,-60.7934356426869,-57.3714786481111,63.0304083526529,-68.1258223655095,5.09541401285631, , , , , , , , , , , , , , , , , , , , , , , , ,8298,8346,8343, ,9077,8288,9064,8392,8296, ,9028,8346, , , , , , , , , , , , , , , , , , , , , , , , ,
-88.9911382134751,-38.6233295598645,50.3678086536104,74.2866767830884,14.9364026516128,-96.0894662529212,-96.7777796853567,-60.7382114372281,-57.6761901007641,63.8072338866695,-69.6794734335428,5.87223954687295, , , , , , , , , , , , , , , , , , , , , , , , ,8328,8484,8382, ,9097,8323,9074,9065,8324, ,9064,8396, , , , , , , , , , , , , , , , , , , , , , , , ,
-90.8813508291516,-38.6233295598645,52.258021269287,74.4997367270875,15.2299148778409,-95.0387595246732,-96.0198841723804,-60.834091517583,-58.7676265940704,64.7523401945078,-71.5696860492194,6.81734585471122, , , , , , , , , , , , , , , , , , , , , , , , ,8351,9065,9060, ,9132,8349,9115,9083,8347, ,9097,9063, , , , , , , , , , , , , , , , , , , , , , , , ,
-92.7211127488985,-38.9854564657844,53.735656283114,74.6391115172193,15.4738417143062,-93.6535518848189,-95.142640738143,-61.2561696226939,-60.1446506026789,65.8532846073411,-73.2283845160063,7.3750999086648, , , , , , , , , , , , , , , , , , , , , , , , ,8378,9078,9074, ,9154,8394,9140,9113,8391, ,9153,9076, , , , , , , , , , , , , , , , , , , , , , , , ,
-93.9863475133047,-39.9514668591188,54.0348806541858,74.7587200001722,15.6701521863583,-92.4391746439845,-94.1867783245921,-61.7174415752123,-61.5286220987789,66.9689071862114,-74.0106140837453,7.04170689753352, , , , , , , , , , , , , , , , , , , , , , , , ,9064,9115,9106, , ,9062,9187,9137,9068, ,9155,9112, , , , , , , , , , , , , , , , , , , , , , , , ,
-95.1774762848246,-40.9769357794534,54.2005405053711,74.8467569556763,15.8208075378976,-90.9781856743248,-93.2027682763576,-62.3924973694034,-62.8768107208465,68.0772060321386,-74.6890083950979,6.61180236295889, , , , , , , , , , , , , , , , , , , , , , , , ,9089,9138,9133, , ,9076, ,9181,9088, , ,9136, , , , , , , , , , , , , , , , , , , , , , , , ,
-96.6511214163925,-42.1083294687084,54.542791947684,74.9082629123162,15.9265249918421,-90.3345034566245,-92.2488533509862,-63.1370971751993,-64.1522675365737,69.3797254425501,-75.5969566820383,6.2172312394878, , , , , , , , , , , , , , , , , , , , , , , , ,9120,9279,9187, , ,9113, , ,9116, , ,9186, , , , , , , , , , , , , , , , , , , , , , , , ,
-97.7042596022214,-43.2365627381864,54.4676968640349,74.9228308415786,15.9857622267762,-90.3345034566245,-91.3879056597967,-64.0731136667555,-65.3245101611612,70.4704111702035,-76.0859782331282,5.61556706292427, , , , , , , , , , , , , , , , , , , , , , , , ,9144, , , , ,9139, , ,9139, , , , , , , , , , , , , , , , , , , , , , , , , , , ,
-98.9610757868896,-44.3988046251638,54.5622711617257,74.8164146676462,15.9940540597646,-90.3345034566245,-90.6832852481964,-67.5724376458529,-65.9555352150705,71.6799402060264,-76.7616734743077,5.08173326828097, , , , , , , , , , , , , , , , , , , , , , , , ,9168, , , , ,9190, , ,9182, , , , , , , , , , , , , , , , , , , , , , , , , , , ,
-99.9106476048435,-46.0743546197546,53.8362929850888,74.6180990868731,15.9438131372758,-90.3345034566245,-90.1940286305894,-68.7848465833304,-65.742215007045,72.9925011122987,-76.8734702949662,3.88096918266712, , , , , , , , , , , , , , , , , , , , , , , , , , , , , , , , , , , , , , , , , , , , , , , , , , , , , , , , , , , , ,
-100.916493984249,-47.2536050687065,53.6628889155421,74.3156314065346,15.8246797681312,-90.3345034566245,-89.969829972064,-69.6612705952114,-65.7983114078854,74.0850495264773,-77.2896914498955,3.2046419234178, , , , , , , , , , , , , , , , , , , , , , , , , , , , , , , , , , , , , , , , , , , , , , , , , , , , , , , , , , , , ,
-101.839396063086,-48.413538861607,53.4258572014791,73.8992778667685,15.6244639905549,-90.3345034566245,-90.0463385683873,-72.7810583894397,-66.4135219523765,75.1264674623463,-77.6326266322827,2.50615916993607, , , , , , , , , , , , , , , , , , , , , , , , , , , , , , , , , , , , , , , , , , , , , , , , , , , , , , , , , , , , ,
-103.111056953142,-50.3931420392451,52.7179149138964,73.3639992246841,15.3306495784152,-90.3345034566245,-90.4412643907153,-75.4627132295081,-66.8853996595668,76.752099496193,-77.914485933519,1.16238643732564, , , , , , , , , , , , , , , , , , , , , , , , , , , , , , , , , , , , , , , , , , , , , , , , , , , , , , , , , , , , ,
-104.109581533181,-51.4649076682969,52.6446738648835,72.711616937809,14.9323321365547,-90.3345034566245,-91.1516870942728,-75.9866966350886,-67.2146156532145,77.7872446007384,-78.3771276990321,0.589883098293316, , , , , , , , , , , , , , , , , , , , , , , , , , , , , , , , , , , , , , , , , , , , , , , , , , , , , , , , , , , , ,
-105.18209925086,-52.4744810744775,52.7076181763826,71.9526412830083,14.422371100641,-90.3345034566245,-91.088009445129,-76.8874637995066,-67.4011068114223,78.8282901626686,-78.9448587136215,0.116568550952539, , , , , , , , , , , , , , , , , , , , , , , , , , , , , , , , , , , , , , , , , , , , , , , , , , , , , , , , , , , , ,
-106.346070715415,-53.4228526715215,52.9232180438936,71.1074256374385,13.7994690882401,-90.3345034566245,-90.5143503850016,-79.435835667457,-67.4429469772094,79.8844616934681,-79.6346443796545,-0.249817313813932, , , , , , , , , , , , , , , , , , , , , , , , , , , , , , , , , , , , , , , , , , , , , , , , , , , , , , , , , , , , ,
-107.610908952264,-54.2947938722717,53.3161150799926,70.2063688036394,13.0698595931209,-90.3345034566245,-91.0738611617709,-81.5415569598235,-67.3360834453365,80.9528514122677,-80.4635120161286,-0.489339396139511, , , , , , , , , , , , , , , , , , , , , , , , , , , , , , , , , , , , , , , , , , , , , , , , , , , , , , , , , , , , ,
-108.976244681459,-55.9095411943813,53.0667034870781,70.0523710179314,12.2483046620861,-90.3345034566245,-92.4226020572832,-81.2252188793722,-67.0750670250438,82.4428929379201,-81.0214740842688,-1.4214188536516, , , , , , , , , , , , , , , , , , , , , , , , , , , , , , , , , , , , , , , , , , , , , , , , , , , , , , , , , , , , ,
-110.430986818111,-56.656156543747,53.7748302743642,70.3386710197638,12.0858694493325,-90.3345034566245,-93.8774609439611,-80.4753319618489,-66.6547458146392,83.5435716809288,-82.1029085462378,-1.44066313469139, , , , , , , , , , , , , , , , , , , , , , , , , , , , , , , , , , , , , , , , , , , , , , , , , , , , , , , , , , , , ,
-111.953267523879,-57.351692096239,54.6015754276403,69.970503443322,12.4972676376259,-90.3345034566245,-95.3490319226302,-81.3192540745401,-65.8989292001905,84.6524798100589,-83.27742147576,-1.37505833429932, , , , , , , , , , , , , , , , , , , , , , , , , , , , , , , , , , , , , , , , , , , , , , , , , , , , , , , , , , , , ,
-113.511285541074,-58.7936702208189,54.7176153202546,69.3145774261273,12.3154045178227,-90.3345034566245,-96.744407256402,-81.7107855674114,-64.7995604843629,86.152477880946,-84.1144504306642,-2.03802745028213, , , , , , , , , , , , , , , , , , , , , , , , , , , , , , , , , , , , , , , , , , , , , , , , , , , , , , , , , , , , ,
-115.064983238633,-59.9825492836467,55.0824339549858,68.7612173700411,11.6726050045033,-90.3345034566245,-97.975031302786,-81.4993669891689,-63.8623634942903,87.5237662611393,-85.0737085968093,-2.45005766433041, , , , , , , , , , , , , , , , , , , , , , , , , , , , , , , , , , , , , , , , , , , , , , , , , , , , , , , , , , , , ,
-116.56841956283,-60.7585696522972,55.8098499105324,68.3494281410435,11.0563939914674,-90.3345034566245,-98.9645098463089,-80.6949098596028,-63.1050965566409,88.6634946075631,-86.1891347366811,-2.47435987088241, , , , , , , , , , , , , , , , , , , , , , , , , , , , , , , , , , , , , , , , , , , , , , , , , , , , , , , , , , , , ,
-117.972639218813,-62.070748323025,55.9018908957877,68.1110977004125,10.4961502533303,-90.3345034566245,-99.6555701698173,-78.8297512851267,-62.1597150122376,90.0216937709186,-86.9372650573004,-3.08442871361862, , , , , , , , , , , , , , , , , , , , , , , , , , , , , , , , , , , , , , , , , , , , , , , , , , , , , , , , , , , , ,
-119.228791473504,-63.3426513566874,55.8861401168162,68.0678075968355,10.0193473808423,-90.3345034566245,-100.015480377438,-76.4538480655225,-61.0923723942957,91.2857214150952,-87.55746579516,-3.72825561993559, , , , , , , , , , , , , , , , , , , , , , , , , , , , , , , , , , , , , , , , , , , , , , , , , , , , , , , , , , , , ,
-120.368506322882,-64.5640544422165,55.8044518806651,68.2284252201437,9.64925873586945,-90.3345034566245,-99.5263657312779,-74.2832763187494,-60.0353166374684,92.4662803825488,-88.0864791017735,-4.37980128077569, , , , , , , , , , , , , , , , , , , , , , , , , , , , , , , , , , , , , , , , , , , , , , , , , , , , , , , , , , , , ,
-121.197606745672,-65.7143426062494,55.4832641394222,68.5876936247579,10.4034627113674,-90.3345034566245,-97.8571997717931,-71.7302037807604,-59.0235797951328,93.4559746759603,-88.340435442547,-5.11553923341361, , , , , , , , , , , , , , , , , , , , , , , , , , , , , , , , , , , , , , , , , , , , , , , , , , , , , , , , , , , , ,
-122.408112121707,-66.0204016658172,56.38771045589,69.2684534035359,11.986853726135,-90.3345034566245,-96.5507745000117,-69.1428460304311,-58.1256653524963,94.214256893762,-89.3979112887988,-4.8163456049636, , , , , , , , , , , , , , , , , , , , , , , , , , , , , , , , , , , , , , , , , , , , , , , , , , , , , , , , , , , , ,
-123.062956165155,-66.6602091438531,56.4027470213022,70.4610168848934,12.649340917114,-90.3345034566245,-96.0013567826203,-66.6358604807244,-57.2998534956613,94.8615826545039,-89.7328515932289,-5.12873106127543, , , , , , , , , , , , , , , , , , , , , , , , , , , , , , , , , , , , , , , , , , , , , , , , , , , , , , , , , , , , ,
-123.045821929499,-67.3522787786574,55.6935431508414,71.4643889702687,12.6614422274888,-90.3345034566245,-95.2771547374143,-64.2418964646334,-56.5465369259826,95.1990503540778,-89.3696825401702,-5.82936781390796, , , , , , , , , , , , , , , , , , , , , , , , , , , , , , , , , , , , , , , , , , , , , , , , , , , , , , , , , , , , ,
-122.734148308762,-67.8480919937599,54.8860563150019,72.0195695480697,12.7379565086751,-90.3345034566245,-94.4638348070219,-62.0964155936378,-55.926637057948,95.2911201512606,-88.810102311882,-6.48101783937895, , , , , , , , , , , , , , , , , , , , , , , , , , , , , , , , , , , , , , , , , , , , , , , , , , , , , , , , , , , , ,
-122.14021849946,-68.1266156352685,54.0136028641912,72.609802080683,12.8699682804647,-90.3345034566245,-93.656184904208,-60.3990071466134,-55.7426875349421,95.1334170673639,-88.0769106818256,-7.05650638553865, , , , , , , , , , , , , , , , , , , , , , , , , , , , , , , , , , , , , , , , , , , , , , , , , , , , , , , , , , , , ,
-121.286121317129,-67.0489063516054,54.2372149655233,73.1942979996753,13.0449233682265,-90.3345034566245,-92.9498147564612,-58.8560063649336,-55.8957613711635,94.1675138343668,-87.7616681413261,-6.40584569304107, , , , , , , , , , , , , , , , , , , , , , , , , , , , , , , , , , , , , , , , , , , , , , , , , , , , , , , , , , , , ,
-120.224907604949,-66.8408715636453,53.3840360413039,73.7320728103248,13.2476410614833,-90.3345034566245,-92.4326441112428,-57.4060757683327,-56.4030372964005,93.532889584297,-86.8044718231266,-6.7284177611707, , , , , , , , , , , , , , , , , , , , , , , , , , , , , , , , , , , , , , , , , , , , , , , , , , , , , , , , , , , , ,
-119.409156814843,-66.4662249574208,52.9429318574218,74.1850235838113,13.8757494148824,-90.3345034566245,-92.1769609664009,-56.3266869391093,-57.2590105713861,92.9376908861314,-86.1760443361323,-6.76164654999948, , , , , , , , , , , , , , , , , , , , , , , , , , , , , , , , , , , , , , , , , , , , , , , , , , , , , , , , , , , , ,
-118.561840594542,-65.61148106735,52.9503595271922,74.5208088550755,15.237906714223,-90.3345034566245,-92.2327661280693,-55.5091664976137,-58.4347195416456,92.0866608309458,-85.7561000608673,-6.33056077007887, , , , , , , , , , , , , , , , , , , , , , , , , , , , , , , , , , , , , , , , , , , , , , , , , , , , , , , , , , , , ,
-117.219696583782,-63.8464499579687,53.3732466258132,74.7153167665673,16.0782281700425,-90.3345034566245,-92.6229946018654,-55.0380572553468,-59.8789321900595,90.5330732708751,-85.2964716047977,-5.23660166607774, , , , , , , , , , , , , , , , , , , , , , , , , , , , , , , , , , , , , , , , , , , , , , , , , , , , , , , , , , , , ,
-115.713309706964,-62.3183503911517,53.3949593158119,74.7545316651784,16.0782281700425,-90.3345034566245,-93.34104229832,-54.7724036402921,-61.5212307110261,89.0158300490574,-84.5541345113879,-4.46169553766987, , , , , , , , , , , , , , , , , , , , , , , , , , , , , , , , , , , , , , , , , , , , , , , , , , , , , , , , , , , , ,
-114.778731589765,-60.6237585241087,54.1549730656562,74.6356564369054,16.0782281700425,-90.3345034566245,-94.3508433029506,-55.0894672932331,-63.2768020400623,87.7012450569365,-84.4668523277106,-3.23439272922624, , , , , , , , , , , , , , , , , , , , , , , , , , , , , , , , , , , , , , , , , , , , , , , , , , , , , , , , , , , , ,
-113.09031917269,-59.0769749537891,54.0133442189004,74.3674208910363,16.0782281700425,-90.3345034566245,-95.5895448155169,-55.9649071974692,-63.6320649549264,86.083647063239,-83.551831695795,-2.53181536744435, , , , , , , , , , , , , , , , , , , , , , , , , , , , , , , , , , , , , , , , , , , , , , , , , , , , , , , , , , , , ,
-111.887915629906,-58.0809521768103,53.8069634530955,73.9695797075299,16.0782281700425,-90.3345034566245,-94.4422471368795,-57.0970010594105,-63.4793594207682,84.9844339033578,-82.8474395415007,-2.1369943618574, , , , , , , , , , , , , , , , , , , , , , , , , , , , , , , , , , , , , , , , , , , , , , , , , , , , , , , , , , , , ,
-110.314168067798,-57.3564809534379,52.9576871143599,73.4716431034551,16.0782281700425,-90.3345034566245,-93.171241193094,-58.4115769087946,-64.5842682265519,83.8353245106176,-81.635927591079,-2.19939691953902, , , , , , , , , , , , , , , , , , , , , , , , , , , , , , , , , , , , , , , , , , , , , , , , , , , , , , , , , , , , ,
-109.08230876509,-56.6128126195719,52.4694961455176,72.910886641423,16.0782281700425,-90.3345034566245,-94.3024584745675,-59.8372190157822,-65.9270307177569,82.8475606923304,-80.7759024553037,-2.07165823702715, , , , , , , , , , , , , , , , , , , , , , , , , , , , , , , , , , , , , , , , , , , , , , , , , , , , , , , , , , , , ,
-107.981473874125,-56.490978735529,51.4904951385956,72.3296908908285,16.0782281700425,-90.3345034566245,-95.4319217046972,-61.3107498574062,-67.0522725711335,82.2362263048265,-79.7359845063602,-2.5002417984667, , , , , , , , , , , , , , , , , , , , , , , , , , , , , , , , , , , , , , , , , , , , , , , , , , , , , , , , , , , , ,
-107.066588738522,-57.3084736348495,49.7581151036728,71.7723116397536,16.0782281700425,-90.3345034566245,-96.4280527921974,-61.989815494716,-67.9089033300266,82.1875311866856,-78.4123519210977,-3.77517926558832, , , , , , , , , , , , , , , , , , , , , , , , , , , , , , , , , , , , , , , , , , , , , , , , , , , , , , , , , , , , ,
-105.675097055773,-58.0714254029115,47.6036716528617,71.2812879200539,16.0782281700425,-90.3345034566245,-97.2151878792604,-61.9009974609856,-68.4678723318186,81.8732612293421,-76.6393843543176,-5.23387687502489, , , , , , , , , , , , , , , , , , , , , , , , , , , , , , , , , , , , , , , , , , , , , , , , , , , , , , , , , , , , ,
-104.946935110845,-59.0180584671308,45.9288766437144,70.8938227561331,16.0782281700425,-90.3345034566245,-97.7343227659861,-61.6491938893557,-67.075825660444,81.9824967889877,-75.4379058772799,-6.54459091170821, , , , , , , , , , , , , , , , , , , , , , , , , , , , , , , , , , , , , , , , , , , , , , , , , , , , , , , , , , , , ,
-103.667623113513,-60.9571665259315,42.7104565875813,70.6385601320343,16.0782281700425,-90.3345034566245,-95.3264478453203,-61.223369701484,-65.504709152939,82.3123948197219,-73.1890398505471,-9.12335496917509, , , , , , , , , , , , , , , , , , , , , , , , , , , , , , , , , , , , , , , , , , , , , , , , , , , , , , , , , , , , ,
-102.513372863778,-62.8772817839293,39.6360910798483,71.6289203847799,16.0782281700425,-90.3345034566245,-92.7501210819631,-60.6220842813039,-63.7931182581062,82.6953273238532,-71.0747319718131,-11.6205953520405, , , , , , , , , , , , , , , , , , , , , , , , , , , , , , , , , , , , , , , , , , , , , , , , , , , , , , , , , , , , ,
-101.372768462933,-64.9500363026824,36.4227321602501,72.7041804730206,16.0782281700425,-90.3345034566245,-90.0507836638979,-59.8517629190007,-61.9861303537823,83.1614023828072,-68.8977503115914,-14.2636520712162, , , , , , , , , , , , , , , , , , , , , , , , , , , , , , , , , , , , , , , , , , , , , , , , , , , , , , , , , , , , ,
-99.9101181189976,-66.7273588310195,33.1827592879779,73.3543478300421,16.0782281700425,-90.3345034566245,-89.90503989062,-59.7159448396069,-61.7800549197423,83.3187384750082,-66.5464387034878,-16.7722997715208, , , , , , , , , , , , , , , , , , , , , , , , , , , , , , , , , , , , , , , , , , , , , , , , , , , , , , , , , , , , ,
-98.5149466805398,-68.5477827939948,29.9671638865449,73.860325748459,16.0782281700425,-90.3345034566245,-89.6016124557128,-60.1669820255435,-60.4681746985251,83.531364737267,-64.2410552835424,-19.290309453725, , , , , , , , , , , , , , , , , , , , , , , , , , , , , , , , , , , , , , , , , , , , , , , , , , , , , , , , , , , , ,
-97.2050006220344,-70.3306723902032,26.8743282318311,73.930761522321,16.0782281700425,-90.3345034566245,-88.7419216911045,-60.5946101027728,-59.6529597651094,83.7678365061185,-62.0396644269329,-21.728172079186, , , , , , , , , , , , , , , , , , , , , , , , , , , , , , , , , , , , , , , , , , , , , , , , , , , , , , , , , , , , ,
-95.9970668585613,-71.7388091553386,24.2582577032225,74.0320102492692,16.0782281700425,-90.3345034566245,-86.1200527696502,-61.0166716461307,-59.3527380801522,83.8679380069496,-60.1276622808919,-23.7402757260581, , , , , , , , , , , , , , , , , , , , , , , , , , , , , , , , , , , , , , , , , , , , , , , , , , , , , , , , , , , , ,
-94.9044320901164,-73.080194730142,21.8242373599743,74.1560879102896,16.0782281700425,-90.3345034566245,-83.647027071668,-61.4491073091999,-59.0584683879658,83.9923134101288,-58.3643347250454,-25.6279786850838, , , , , , , , , , , , , , , , , , , , , , , , , , , , , , , , , , , , , , , , , , , , , , , , , , , , , , , , , , , , ,
-93.9343307383215,-73.8803469403709,20.0539837979504,74.2939145754748,16.0782281700425,-90.3345034566245,-81.7805674679402,-60.9944555555304,-58.8010862629187,83.9073388393459,-56.994157268136,-26.9131815712103, , , , , , , , , , , , , , , , , , , , , , , , , , , , , , , , , , , , , , , , , , , , , , , , , , , , , , , , , , , , ,
-93.0857478877421,-74.1224222788983,18.9633256088437,74.4361708651045,16.0782281700425,-90.3345034566245,-81.7805674679402,-60.2781504308268,-58.6045145966048,83.6040850833199,-56.024536748293,-27.5795483350273, , , , , , , , , , , , , , , , , , , , , , , , , , , , , , , , , , , , , , , , , , , , , , , , , , , , , , , , , , , , ,
-92.3479357452144,-74.7333949059864,17.6145408392279,74.574074244676,16.0782281700425,-90.3345034566245,-81.7805674679402,-60.6477042752632,-58.4836026055215,83.5406653256001,-54.9812382922212,-28.5594270333792, , , , , , , , , , , , , , , , , , , , , , , , , , , , , , , , , , , , , , , , , , , , , , , , , , , , , , , , , , , , ,
-92.3675709031547,-74.8464896391997,17.5210812639549,74.7879239367222,16.0782281700425,-88.8807595849405,-81.7805674679402,-60.3400232102848,-58.4433397950311,83.6070302711768,-54.9443260835548,-28.6627041876224, , , , , , , , , , , , , , , , , , , , , , , , , , , , , , , , , , , , , , , , , , , , , , , , , , , , , , , , , , , , ,
-92.8751002478098,-74.6845475529346,18.1905526948751,74.9560649977945,16.0782281700425,-87.496135899804,-81.7805674679402,-58.3655508879334,-58.4793468695534,83.7798239003719,-55.5328264713425,-28.2469974290298, , , , , , , , , , , , , , , , , , , , , , , , , , , , , , , , , , , , , , , , , , , , , , , , , , , , , , , , , , , , ,
-92.314644325116,-74.0092912411993,18.3053530839166,74.9921515198319,16.0782281700425,-86.1709850105002,-81.7805674679402,-56.2620868957992,-58.5793933645007,83.1619677831573,-55.3099987045164,-27.8519690786413, , , , , , , , , , , , , , , , , , , , , , , , , , , , , , , , , , , , , , , , , , , , , , , , , , , , , , , , , , , , ,
-92.0283376593304,-73.2600949861093,18.768242673221,75.0521551980993,16.0782281700425,-84.8880769809849,-81.7805674679402,-54.7192552910884,-57.819437124415,82.6442163227195,-55.3982901662757,-27.2459261564441, , , , , , , , , , , , , , , , , , , , , , , , , , , , , , , , , , , , , , , , , , , , , , , , , , , , , , , , , , , , ,
-92.6383635521516,-72.427671176605,20.2106923755465,75.0292287610038,16.0782281700425,-83.6303462499967,-81.7805674679402,-54.7192552910884,-57.4433132324104,82.533017364378,-56.4245279638492,-26.1084894005292, , , , , , , , , , , , , , , , , , , , , , , , , , , , , , , , , , , , , , , , , , , , , , , , , , , , , , , , , , , , ,
-91.917392156469,-70.9079449552832,21.0094472011856,74.989819299237,16.0782281700425,-82.3823218051598,-81.7805674679402,-54.7192552910884,-57.563148469139,81.4126685558758,-56.4634196788274,-24.9492488770488, , , , , , , , , , , , , , , , , , , , , , , , , , , , , , , , , , , , , , , , , , , , , , , , , , , , , , , , , , , , ,
-92.1182303003374,-69.0458457758179,23.0723845245193,74.9335536097356,16.0782281700425,-81.1312332954926,-81.7805674679402,-54.7192552910884,-57.6772147491215,80.5820380380773,-57.5953074124284,-22.9867306256493, , , , , , , , , , , , , , , , , , , , , , , , , , , , , , , , , , , , , , , , , , , , , , , , , , , , , , , , , , , , ,
-91.0566207267544,-67.1887841059281,23.8678366208262,74.8862241743145,16.0782281700425,-79.8678146366603,-81.7805674679402,-54.7192552910884,-57.7720813425465,79.1227024163409,-57.4622286737904,-21.6604737425509, , , , , , , , , , , , , , , , , , , , , , , , , , , , , , , , , , , , , , , , , , , , , , , , , , , , , , , , , , , , ,
-89.7040955376239,-65.0123325582843,24.6917629793395,74.8599747974897,16.0782281700425,-78.5868096645845,-81.7805674679402,-54.7192552910884,-57.8368883450877,77.3582140479538,-57.1979292584818,-20.1602847894724, , , , , , , , , , , , , , , , , , , , , , , , , , , , , , , , , , , , , , , , , , , , , , , , , , , , , , , , , , , , ,
-88.1117859863941,-62.2871384637443,25.8246475226497,74.905412622644,16.0782281700425,-77.2871556958462,-81.7805674679402,-54.7192552910884,-57.8641729148978,75.1994622250689,-56.968216754522,-18.2312454705473, , , , , , , , , , , , , , , , , , , , , , , , , , , , , , , , , , , , , , , , , , , , , , , , , , , , , , , , , , , , ,
-86.2733766737019,-59.5042440967509,26.7691325769509,74.9560649977945,16.0782281700425,-75.9718272874573,-81.7805674679402,-54.7192552910884,-57.8503438678005,72.8888103852261,-56.5212546253265,-16.3675557599, , , , , , , , , , , , , , , , , , , , , , , , , , , , , , , , , , , , , , , , , , , , , , , , , , , , , , , , , , , , ,
-84.1942163716943,-56.2613952732298,27.9328210984643,74.9560649977945,16.0782281700425,-74.6473707459567,-81.7805674679402,-54.7192552910884,-57.7957724021002,70.2278058224617,-56.0635187350794,-14.1642870873827, , , , , , , , , , , , , , , , , , , , , , , , , , , , , , , , , , , , , , , , , , , , , , , , , , , , , , , , , , , , ,
-81.8911869813649,-52.2733820712683,29.6178049100964,74.9560649977945,16.0782281700425,-73.323215925417,-81.7805674679402,-54.7192552910884,-57.281382023242,67.0822845263163,-55.7544959457307,-11.3277885805859, , , , , , , , , , , , , , , , , , , , , , , , , , , , , , , , , , , , , , , , , , , , , , , , , , , , , , , , , , , , ,
-79.3234028218376,-47.5140057702696,31.8093970515679,74.9560649977945,16.0782281700425,-72.0108775478496,-81.7775426549063,-54.7192552910884,-56.1836978507028,63.4187042960533,-55.5663999367028,-7.85230435935088, , , , , , , , , , , , , , , , , , , , , , , , , , , , , , , , , , , , , , , , , , , , , , , , , , , , , , , , , , , , ,
-75.7078897384005,-43.2247682818842,32.4831214565162,74.9560649977945,16.0782281700425,-70.723143760558,-80.3401703977105,-54.7192552910884,-56.1169669746899,59.466329010142,-54.0955055974584,-5.37082341268396, , , , , , , , , , , , , , , , , , , , , , , , , , , , , , , , , , , , , , , , , , , , , , , , , , , , , , , , , , , , ,
-72.7028018599366,-38.6233295598645,34.079472300072,74.9560649977945,16.0782281700425,-69.4733091589954,-78.9537331326922,-54.7192552910884,-56.0427435941272,55.6630657099003,-53.3911370800044,-2.27192862989628, , , , , , , , , , , , , , , , , , , , , , , , , , , , , , , , , , , , , , , , , , , , , , , , , , , , , , , , , , , , ,
-68.296190569401,-34.5494567835672,33.7467337858337,74.9560649977945,16.0782281700425,-68.2744621474114,-77.6397082760686,-54.7192552910884,-55.9666124123648,51.4228236764838,-51.0214621776174,-0.401361498866717, , , , , , , , , , , , , , , , , , , , , , , , , , , , , , , , , , , , , , , , , , , , , , , , , , , , , , , , , , , , ,
-65.4555050668552,-29.3615664111088,36.0939386557463,74.9560649977945,16.0782281700425,-67.1388038613227,-76.4151158097049,-54.7192552910884,-55.4775430698829,47.4085357389817,-50.7747218613008,3.3661861223188, , , , , , , , , , , , , , , , , , , , , , , , , , , , , , , , , , , , , , , , , , , , , , , , , , , , , , , , , , , , ,
-62.270346961255,-24.7432273042243,37.5271196570306,74.9560649977945,16.0782281700425,-66.076980287224,-75.2909875575206,-54.7192552910884,-54.7169647400591,43.5067871327393,-49.8987333091429,6.3919461764032, , , , , , , , , , , , , , , , , , , , , , , , , , , , , , , , , , , , , , , , , , , , , , , , , , , , , , , , , , , , ,
-58.2510188496951,-20.4490112728498,37.8020075768452,74.9560649977945,16.0782281700425,-65.0974501896028,-74.2713267698304,-54.7192552910884,-54.7169647400591,39.3500150612721,-48.0265132132703,8.67649815199775, , , , , , , , , , , , , , , , , , , , , , , , , , , , , , , , , , , , , , , , , , , , , , , , , , , , , , , , , , , , ,
-55.0851901971501,-15.8596310207639,39.2255591763861,74.9560649977945,16.0782281700425,-64.2059528077365,-73.3526535229908,-54.7192552910884,-54.7169647400591,35.4724106089567,-47.1553746867681,11.6829640778111, , , , , , , , , , , , , , , , , , , , , , , , , , , , , , , , , , , , , , , , , , , , , , , , , , , , , , , , , , , , ,
-52.4077623154408,-11.9118629253468,40.4958993900939,74.9560649977945,16.0782281700425,-63.4051410051396,-72.5241783388156,-53.6634983312538,-54.7169647400591,32.1598126203935,-46.4518308527675,14.2920182323736, , , , , , , , , , , , , , , , , , , , , , , , , , , , , , , , , , , , , , , , , , , , , , , , , , , , , , , , , , , , ,
-49.5111056030422,-8.96689504233143,40.5442105607106,74.9560649977945,16.0782281700425,-62.6944066470905,-71.7685644719958,-52.6784226529209,-54.7169647400591,29.2390003226865,-45.0276580818764,15.7886577591896, , , , , , , , , , , , , , , , , , , , , , , , , , , , , , , , , , , , , , , , , , , , , , , , , , , , , , , , , , , , ,
-47.2290403885809,-6.74619140413182,40.4828489844489,74.9560649977945,16.0782281700425,-62.0698840182391,-71.0631685355821,-51.734050448827,-54.7169647400591,26.987615896356,-43.855944686515,16.8683287901586, , , , , , , , , , , , , , , , , , , , , , , , , , , , , , , , , , , , , , , , , , , , , , , , , , , , , , , , , , , , ,
-44.3632368740541,-4.24042655693501,40.1228103171189,74.9560649977945,16.0782281700425,-61.5246129445318,-70.3816239124855,-50.8028929570676,-54.7169647400591,24.3018317154942,-42.2430235955866,17.941191880092, , , , , , , , , , , , , , , , , , , , , , , , , , , , , , , , , , , , , , , , , , , , , , , , , , , , , , , , , , , , ,
-43.2116436135414,-3.2893400261031,39.9223035874382,74.9560649977945,16.0782281700425,-61.0488791043767,-69.6956552080726,-49.8616203776906,-54.7169647400591,23.2504918198219,-41.5669736004899,18.3164817806675, , , , , , , , , , , , , , , , , , , , , , , , , , , , , , , , , , , , , , , , , , , , , , , , , , , , , , , , , , , , ,
-42.3420654519056,-3.00154813705609,39.3405173148494,74.9560649977945,16.0782281700425,-60.6307891745859,-68.9770547150343,-48.8923349147939,-54.7169647400591,22.6718067944805,-40.8412913833775,18.1694845888966, , , , , , , , , , , , , , , , , , , , , , , , , , , , , , , , , , , , , , , , , , , , , , , , , , , , , , , , , , , , ,
-41.7287956048515,-3.36741299080211,38.3613826140493,74.9560649977945,16.0782281700425,-60.2571375948256,-68.1997695756225,-47.8834835047498,-54.7169647400591,22.5481042978265,-40.0450891094505,17.4969848116236, , , , , , , , , , , , , , , , , , , , , , , , , , , , , , , , , , , , , , , , , , , , , , , , , , , , , , , , , , , , ,
-41.4758616777057,-4.35092477845745,37.1249368992481,74.9560649977945,16.0782281700425,-59.9145627503575,-67.3420162172483,-46.8304587967322,-54.7169647400591,22.9133932280812,-39.3003992884769,16.3870060603953, , , , , , , , , , , , , , , , , , , , , , , , , , , , , , , , , , , , , , , , , , , , , , , , , , , , , , , , , , , , ,
-41.5709856630745,-5.89129417304468,35.6796914900296,74.9560649977945,16.0782281700425,-59.5909006238128,-66.3882735131712,-45.7359036754788,-54.7169647400591,23.7311399180592,-38.6253385765521,14.8941986584925, , , , , , , , , , , , , , , , , , , , , , , , , , , , , , , , , , , , , , , , , , , , , , , , , , , , , , , , , , , , ,
-41.4935834862636,-7.90590370403567,33.5876797822278,74.9560649977945,16.0782281700425,-59.2765738265474,-65.3309542190596,-44.6096924221383,-54.0393695796984,24.6997435951493,-37.5406316342457,12.8408880390961, , , , , , , , , , , , , , , , , , , , , , , , , , , , , , , , , , , , , , , , , , , , , , , , , , , , , , , , , , , , ,
-41.7708942738103,-10.2943573697179,31.4765369040922,74.9560649977945,16.2979598266445,-58.9658360596571,-64.1715520759613,-43.4685419183125,-52.7721815643558,26.0326258217637,-36.6237155889513,10.5910897671872, , , , , , , , , , , , , , , , , , , , , , , , , , , , , , , , , , , , , , , , , , , , , , , , , , , , , , , , , , , , ,
-41.8397636922252,-12.9433405462113,28.8964231460138,74.9560649977945,17.0684105807087,-58.6577204240116,-62.9211103958455,-42.3352143319357,-51.4765409672629,27.3915521192179,-35.3680934191195,7.97654129990125, , , , , , , , , , , , , , , , , , , , , , , , , , , , , , , , , , , , , , , , , , , , , , , , , , , , , , , , , , , , ,
-41.9312958937053,-15.7320070095697,26.1992888841355,74.9560649977945,17.8268923602366,-58.3565840127827,-61.5999316970302,-41.2372939390107,-50.3895756140621,28.8316514516372,-34.0652923889205,5.2336409372829, , , , , , , , , , , , , , , , , , , , , , , , , , , , , , , , , , , , , , , , , , , , , , , , , , , , , , , , , , , , ,
-42.1444137516109,-18.5376168287869,23.6067969228239,75.2295579624337,18.561256569225,-58.0721750389712,-60.236521491842,-40.2055432869415,-49.1933619911562,30.3410152901986,-32.8756053372175,2.5345900470185, , , , , , , , , , , , , , , , , , , , , , , , , , , , , , , , , , , , , , , , , , , , , , , , , , , , , , , , , , , , ,
-42.4003584724935,-21.2411617462565,21.1591967262369,75.7684384477759,19.2559604568554,-57.819170745928,-58.8658223181683,-39.2718707978829,-48.278278551819,31.8207601093746,-31.7797775993652,-0.0409825100097949, , , , , , , , , , , , , , , , , , , , , , , , , , , , , , , , , , , , , , , , , , , , , , , , , , , , , , , , , , , , ,
-42.4680876375214,-23.7327531072449,18.7353345302763,76.2554148664723,19.6981753579097,-57.616163917323,-57.5268495346948,-38.4669827969039,-47.4091074473189,33.1004203723829,-30.601711083899,-2.49870928848429, , , , , , , , , , , , , , , , , , , , , , , , , , , , , , , , , , , , , , , , , , , , , , , , , , , , , , , , , , , , ,
-42.6049783644611,-25.9165976615434,16.6883807029176,76.6536065464765,20.2345656916177,-57.4841306460364,-56.2598935259476,-37.8178495267823,-46.5458252290114,34.2607880130019,-29.6466795336894,-4.6141084793129, , , , , , , , , , , , , , , , , , , , , , , , , , , , , , , , , , , , , , , , , , , , , , , , , , , , , , , , , , , , ,
-42.6729666575819,-27.7154018510333,14.9575648065485,76.950759159432,20.6629811872794,-57.4444889286099,-55.1035034128783,-37.3451765219727,-46.4078746499204,35.1941842543073,-28.8152657320653,-6.37891852224243, , , , , , , , , , , , , , , , , , , , , , , , , , , , , , , , , , , , , , , , , , , , , , , , , , , , , , , , , , , , ,
-43.1021863677534,-29.9821743613597,13.1200120063935,77.1931204447986,20.7091492731696,-57.5169350223709,-54.091508252832,-37.0611227123708,-46.039085032304,36.5421803645562,-28.1110991870735,-8.43108117748309, , , , , , , , , , , , , , , , , , , , , , , , , , , , , , , , , , , , , , , , , , , , , , , , , , , , , , , , , , , , ,
-43.2356191162219,-30.8701268365371,12.3654922796847,77.3058557959104,20.8770912454898,-57.7172970133202,-53.2503515298544,-36.9675265840625,-46.2244608734468,37.0528729763792,-27.8005556979534,-9.2523172784262, , , , , , , , , , , , , , , , , , , , , , , , , , , , , , , , , , , , , , , , , , , , , , , , , , , , , , , , , , , , ,
-43.4266408344523,-31.2829838034369,12.1436570310152,77.2137044165181,20.7132066686493,-58.0556557466684,-52.5970024551919,-37.0548779979074,-46.1895992465405,37.3548123189443,-27.7851489327338,-9.56966338621086, , , , , , , , , , , , , , , , , , , , , , , , , , , , , , , , , , , , , , , , , , , , , , , , , , , , , , , , , , , , ,
-43.9977274122758,-31.2603328988158,12.7373945134599,77.0382694627645,20.6183632814326,-58.5349513762831,-52.1376608102283,-37.3022062446506,-46.7003877661558,37.6290301555454,-28.3675609628679,-9.26146919267793, , , , , , , , , , , , , , , , , , , , , , , , , , , , , , , , , , , , , , , , , , , , , , , , , , , , , , , , , , , , ,
-44.3317926948117,-30.8108288778725,13.5209638169391,76.6605376731806,20.3928988549309,-59.1502336478457,-51.8673976377597,-37.677960573526,-47.243022360839,37.5713107863418,-28.9263782558755,-8.64493253046669, , , , , , , , , , , , , , , , , , , , , , , , , , , , , , , , , , , , , , , , , , , , , , , , , , , , , , , , , , , , ,
-44.810857658964,-30.0185223037593,14.7923353552046,76.3497105623095,20.1417799132109,-59.888643720764,-51.7707816630029,-38.1418578833871,-48.2879276880031,37.4146899813613,-29.8015965070844,-7.61309347427735, , , , , , , , , , , , , , , , , , , , , , , , , , , , , , , , , , , , , , , , , , , , , , , , , , , , , , , , , , , , ,
-45.4319297102394,-29.1662387448187,16.2656909654206,75.9741235847479,19.7992053394945,-60.7301479879092,-51.8234435259048,-38.6475796323529,-48.7842970878772,37.2990842275288,-30.8488103378301,-6.45027388969905, , , , , , , , , , , , , , , , , , , , , , , , , , , , , , , , , , , , , , , , , , , , , , , , , , , , , , , , , , , , ,
-45.9417136329067,-27.9430991085961,17.9986145243105,75.3361352544482,19.3868620497101,-61.6489843727713,-51.9944410730425,-39.1461256879746,-49.466732768036,36.9424063707511,-31.9701640786087,-4.97224229214282, , , , , , , , , , , , , , , , , , , , , , , , , , , , , , , , , , , , , , , , , , , , , , , , , , , , , , , , , , , , ,
-46.4718093618771,-26.6453602747787,19.8264490870983,74.9015179151464,18.9120763030788,-62.6157193792502,-52.2492115684546,-39.7430147311631,-50.3653605198916,36.5585848183276,-33.1491292244878,-3.40945559384019, , , , , , , , , , , , , , , , , , , , , , , , , , , , , , , , , , , , , , , , , , , , , , , , , , , , , , , , , , , , ,
-47.1826432491561,-26.1082657263961,21.0743775227599,74.3787307072154,18.4540130442706,-63.599734122848,-52.5528213814565,-40.2132395339455,-51.2868035433509,36.6454544877758,-34.1285103859581,-2.51694410181809, , , , , , , , , , , , , , , , , , , , , , , , , , , , , , , , , , , , , , , , , , , , , , , , , , , , , , , , , , , , ,
-47.6749779584357,-24.9255190627877,22.7494588956479,73.9008901683246,17.959134771458,-64.5718645497729,-52.8761795521746,-41.1991206231651,-51.8503091969402,36.3002485106114,-35.2122184270419,-1.08803008356992, , , , , , , , , , , , , , , , , , , , , , , , , , , , , , , , , , , , , , , , , , , , , , , , , , , , , , , , , , , , ,
-48.1112987520053,-23.9057708573993,24.2055278946059,73.6497727734424,17.4959411761891,-65.5068546290209,-54.3140787534052,-41.2606378621104,-52.1131030472137,36.0085348047019,-36.1584133233056,0.149878518603319, , , , , , , , , , , , , , , , , , , , , , , , , , , , , , , , , , , , , , , , , , , , , , , , , , , , , , , , , , , , ,
-48.4720556135244,-23.4792576465566,24.9927979669676,73.1868272108617,17.1200163099845,-66.3852922758272,-54.9056584208493,-42.0327557300826,-52.165106371678,35.9756566300402,-36.7324267902461,0.756770160205522, , , , , , , , , , , , , , , , , , , , , , , , , , , , , , , , , , , , , , , , , , , , , , , , , , , , , , , , , , , , ,
-48.743558852473,-22.894904056497,25.8486547959759,73.0945165834872,16.7827436433832,-67.1948011969329,-55.2329226996025,-41.8685218177165,-52.2677348272842,35.8192314544847,-37.2961068242246,1.47687536973951, , , , , , , , , , , , , , , , , , , , , , , , , , , , , , , , , , , , , , , , , , , , , , , , , , , , , , , , , , , , ,
-48.9187009296438,-22.5365262464147,26.382174683229,73.0804275363006,16.5219209832943,-67.9304133097242,-56.2643130520428,-41.6997532560994,-52.0847864043894,35.7276135880289,-37.6504378064364,1.92282421840716, , , , , , , , , , , , , , , , , , , , , , , , , , , , , , , , , , , , , , , , , , , , , , , , , , , , , , , , , , , , ,
-48.9969973029999,-22.6402300627798,26.35676724022,72.9249095178718,16.2246143569541,-68.5941743336353,-56.89839232274,-41.8309987528976,-51.6054599267452,35.8186136828896,-37.67688227161,1.85826858872008, , , , , , , , , , , , , , , , , , , , , , , , , , , , , , , , , , , , , , , , , , , , , , , , , , , , , , , , , , , , ,
-48.9839975113206,-22.6451628816777,26.3388346296428,73.0633983451198,16.0530697533916,-69.1940991540968,-57.8877368236206,-41.2735393986294,-50.9742591440398,35.8145801964988,-37.6614160704818,1.8468358739826, , , , , , , , , , , , , , , , , , , , , , , , , , , , , , , , , , , , , , , , , , , , , , , , , , , , , , , , , , , , ,
-48.8901508990997,-22.756760215112,26.1333906839876,73.3102539998182,15.828012679572,-69.7426099521241,-58.4768347369699,-41.5715259246738,-50.2619684967571,35.8234555571055,-37.5117707915437,1.68831523443783, , , , , , , , , , , , , , , , , , , , , , , , , , , , , , , , , , , , , , , , , , , , , , , , , , , , , , , , , , , , ,
-48.7292579154529,-23.2859808809656,25.4432770344873,73.3779473497638,15.6609135147638,-70.2546073452494,-59.5541824901829,-41.1127573515316,-49.4445766135377,36.0076193982089,-37.0862674749702,1.07864807676086, , , , , , , , , , , , , , , , , , , , , , , , , , , , , , , , , , , , , , , , , , , , , , , , , , , , , , , , , , , , ,
-48.5166645992414,-23.4248758224924,25.0917887767489,73.6668228760294,15.5972091532768,-70.7453729914682,-59.9798466680666,-41.3266731898165,-48.6111220954943,35.9707702108666,-36.8042266879953,0.833456477128297, , , , , , , , , , , , , , , , , , , , , , , , , , , , , , , , , , , , , , , , , , , , , , , , , , , , , , , , , , , , ,
-48.2673552967092,-23.4871842770948,24.7801710196143,73.9820265062866,15.47558717319,-71.2285602659124,-60.7547908164737,-40.8879354360785,-47.941781985831,35.8772697869017,-36.5237631581618,0.646493371259768, , , , , , , , , , , , , , , , , , , , , , , , , , , , , , , , , , , , , , , , , , , , , , , , , , , , , , , , , , , , ,
-48.6797941521404,-23.8787449369884,24.8010492151518,74.1494492219753,15.4141046145286,-71.7145464541896,-61.4920277298343,-40.9860244791101,-47.3871599897815,36.2792695445641,-36.7404216836462,0.461152139081721, , , , , , , , , , , , , , , , , , , , , , , , , , , , , , , , , , , , , , , , , , , , , , , , , , , , , , , , , , , , ,
-48.6285766265929,-23.6500841148103,24.9784925117824,74.4454735260516,15.2388229948478,-72.2093674091865,-61.819351713934,-41.2223258382928,-46.5757101697373,36.1393303707013,-36.8035345691877,0.664204198486035, , , , , , , , , , , , , , , , , , , , , , , , , , , , , , , , , , , , , , , , , , , , , , , , , , , , , , , , , , , , ,
-48.4903896592575,-23.2333759005631,25.2570137586943,74.686091698014,15.2311435120344,-72.7143518762019,-63.0333400603802,-42.0677578190865,-45.8274199613768,35.86188277991,-36.873701708976,1.01181892906561, , , , , , , , , , , , , , , , , , , , , , , , , , , , , , , , , , , , , , , , , , , , , , , , , , , , , , , , , , , , ,
-50.0089954945067,-23.2331214849455,26.7758740095612,74.9536598208572,15.2545215482828,-73.2264554402701,-63.9245063989303,-42.0729363166397,-45.5653455966957,36.6210584897258,-38.392434752034,1.77137626230786, , , , , , , , , , , , , , , , , , , , , , , , , , , , , , , , , , , , , , , , , , , , , , , , , , , , , , , , , , , , ,
-49.8719186213988,-22.4285219890375,27.4433966323612,74.9560649977945,15.3178877151431,-73.7391919828182,-64.549838495759,-41.2141001827969,-45.1237154217901,36.1502203052178,-38.6576576268801,2.50743732166186, , , , , , , , , , , , , , , , , , , , , , , , , , , , , , , , , , , , , , , , , , , , , , , , , , , , , , , , , , , , ,
-49.9147083359914,-21.4516778497159,28.4630304862754,74.9560649977945,15.2790958314953,-74.2439908346504,-65.6739545526896,-40.8957847421946,-44.6151812947298,35.6831930928533,-39.1888694111335,3.50567631827974, , , , , , , , , , , , , , , , , , , , , , , , , , , , , , , , , , , , , , , , , , , , , , , , , , , , , , , , , , , , ,
-50.4976416135443,-21.4450829745296,29.0525586390146,74.9560649977945,15.418171939648,-74.7317746602468,-66.3561632462891,-41.0701238675967,-43.9018692136047,35.9713622940366,-39.7751001262795,3.80373783224252, , , , , , , , , , , , , , , , , , , , , , , , , , , , , , , , , , , , , , , , , , , , , , , , , , , , , , , , , , , , ,
-50.8449344295323,-20.2215666278214,30.6233678017107,74.9560649977945,15.6596673715553,-75.19454268867,-66.9110646286518,-40.7674569170161,-43.3960270148354,35.5332505286765,-40.7341511156216,5.20090058694467, , , , , , , , , , , , , , , , , , , , , , , , , , , , , , , , , , , , , , , , , , , , , , , , , , , , , , , , , , , , ,
-50.6643289708285,-18.954242669913,31.7100863009154,74.9560649977945,16.0301883888865,-75.6267448249093,-67.1235628210507,-40.8725447947272,-42.7999414436239,34.8092858203704,-41.187207635872,6.3779218155012, , , , , , , , , , , , , , , , , , , , , , , , , , , , , , , , , , , , , , , , , , , , , , , , , , , , , , , , , , , , ,
-50.3650554871205,-17.9037916552663,32.461263831854,74.9560649977945,16.4746995598709,-76.0262602058015,-67.3017212195609,-40.8949724431266,-42.3959570990471,34.1344235711931,-41.4131596594873,7.27873608829384, , , , , , , , , , , , , , , , , , , , , , , , , , , , , , , , , , , , , , , , , , , , , , , , , , , , , , , , , , , , ,
-49.6318119914665,-17.0261707615377,32.6056412299287,74.9560649977945,17.0061455400843,-76.3948714227027,-67.450959105081,-40.7745399987623,-42.0388163642105,33.3289913765018,-41.1187266106977,7.78973523419546, , , , , , , , , , , , , , , , , , , , , , , , , , , , , , , , , , , , , , , , , , , , , , , , , , , , , , , , , , , , ,
-48.8120184107507,-18.1514546172998,30.6605637934507,74.9560649977945,17.640595074011,-76.7382386356597,-67.5813273938203,-39.7931644134212,-41.7782123543014,33.4817365140249,-39.7362911021008,6.25455458807548, , , , , , , , , , , , , , , , , , , , , , , , , , , , , , , , , , , , , , , , , , , , , , , , , , , , , , , , , , , , ,
-47.9191969116254,-17.2605511138302,30.6586457977951,74.9560649977945,18.3969567232039,-77.0654732177376,-67.7062458786426,-39.4683488102489,-41.5506629126623,32.5898740127275,-39.2889213547103,6.6990473419825, , , , , , , , , , , , , , , , , , , , , , , , , , , , , , , , , , , , , , , , , , , , , , , , , , , , , , , , , , , , ,
-46.9752423352261,-16.3538071804793,30.6214351547467,74.9560649977945,19.1754872790326,-77.38844171494,-67.8409042597297,-39.0250802749861,-41.7075275590099,31.6645247578524,-38.7983387449865,7.13381398713372, , , , , , , , , , , , , , , , , , , , , , , , , , , , , , , , , , , , , , , , , , , , , , , , , , , , , , , , , , , , ,
-46.008907865417,-15.9419525137604,30.0669553516565,74.9560649977945,20.0171661737253,-77.7208948649312,-68.0005381844122,-38.4759568681784,-41.8388748109461,30.9754301895884,-38.0379316085368,7.06250141894808, , , , , , , , , , , , , , , , , , , , , , , , , , , , , , , , , , , , , , , , , , , , , , , , , , , , , , , , , , , , ,
-45.0533536467786,-15.4160435998001,29.6373100469784,74.9560649977945,20.9228593320733,-78.0774514334866,-68.19873683296,-37.8399236166644,-42.0514325925948,30.234698623289,-37.3453318468785,7.11063322358914, , , , , , , , , , , , , , , , , , , , , , , , , , , , , , , , , , , , , , , , , , , , , , , , , , , , , , , , , , , , ,
-44.1430239786794,-15.4085387129431,28.7344852657362,74.9560649977945,21.8150638949799,-78.4724250141065,-68.4458879101534,-37.1403135145661,-42.7031982671708,29.7757813458109,-36.4387546222079,6.66297327639657, , , , , , , , , , , , , , , , , , , , , , , , , , , , , , , , , , , , , , , , , , , , , , , , , , , , , , , , , , , , ,
-43.3102157990059,-15.5730295475395,27.7371862514662,75.2632206278543,22.6673290908685,-78.9184996064443,-68.7478502707939,-36.4026260420067,-43.052153154623,29.4416226732724,-35.5237010252361,6.08207835196336, , , , , , , , , , , , , , , , , , , , , , , , , , , , , , , , , , , , , , , , , , , , , , , , , , , , , , , , , , , , ,
-42.5817681996553,-15.5596703804538,27.0220978192014,75.5329581666932,23.4554438740716,-79.4253328746536,-69.1049620705333,-35.6522036461067,-43.4851663475863,29.0707192900542,-34.8019330094284,5.73121371937382, , , , , , , , , , , , , , , , , , , , , , , , , , , , , , , , , , , , , , , , , , , , , , , , , , , , , , , , , , , , ,
-41.9763215837453,-16.4559676855716,25.5203538981735,75.7596374733237,24.1593331607458,-79.9982508257823,-69.5115122794837,-34.9120015934114,-43.9755422462395,29.2161446346581,-33.7483377409595,4.53219310630095, , , , , , , , , , , , , , , , , , , , , , , , , , , , , , , , , , , , , , , , , , , , , , , , , , , , , , , , , , , , ,
-41.5025425563589,-17.0725330320674,24.4300095242914,75.9419038214155,24.7646674493881,-80.6372412814025,-69.9557932942117,-34.2006627130803,-44.491454246798,29.2875377942128,-32.9662760403253,3.67873824611204, , , , , , , , , , , , , , , , , , , , , , , , , , , , , , , , , , , , , , , , , , , , , , , , , , , , , , , , , , , , ,
-41.1585739250842,-17.8834310503798,23.2751428747043,76.0834259053764,25.2639580692652,-81.3364308181014,-70.4208012282065,-33.5310910664579,-44.9975303552823,29.5210024877317,-32.2168583998943,2.69585591216225, , , , , , , , , , , , , , , , , , , , , , , , , , , , , , , , , , , , , , , , , , , , , , , , , , , , , , , , , , , , ,
-40.9327700238191,-19.4212498634843,21.5115201603347,76.1931312519901,25.6570018772626,-82.0841545457268,-70.8855682659153,-32.909670734337,-45.456783467665,30.1770099436514,-31.222145092077,1.04513514842518, , , , , , , , , , , , , , , , , , , , , , , , , , , , , , , , , , , , , , , , , , , , , , , , , , , , , , , , , , , , ,
-40.8055747313401,-20.8318997823703,19.9736749489697,76.2849193976173,25.9506389278758,-82.863634323507,-71.3270190420643,-32.3362097376749,-45.8327513919637,30.8187372568549,-30.389624840155,-0.429112416700261, , , , , , , , , , , , , , , , , , , , , , , , , , , , , , , , , , , , , , , , , , , , , , , , , , , , , , , , , , , , ,
-40.7522538733905,-21.998907389045,18.7533464843454,76.3768771234119,26.1578644081873,-83.6541995655288,-71.7221649179902,-31.8046155648631,-46.0917056805943,31.3755806312174,-29.7528001788681,-1.62278045234976, , , , , , , , , , , , , , , , , , , , , , , , , , , , , , , , , , , , , , , , , , , , , , , , , , , , , , , , , , , , ,
-40.7461295752443,-23.1586830623235,17.5874465129207,76.4900510881258,26.2963920470304,-84.4329314226221,-72.050407525009,-31.3042388906818,-46.2047921674832,31.9524063187836,-29.1667880440826,-2.78561827470136, , , , , , , , , , , , , , , , , , , , , , , , , , , , , , , , , , , , , , , , , , , , , , , , , , , , , , , , , , , , ,
-40.7619650097228,-24.5483878755224,16.2135771342003,76.6468653662006,26.386805105007,-85.1765860961272,-72.2957237229324,-30.821766495997,-46.1499761863291,32.6551764426223,-28.4877710719616,-4.16740537066104, , , , , , , , , , , , , , , , , , , , , , , , , , , , , , , , , , , , , , , , , , , , , , , , , , , , , , , , , , , , ,
-40.7791805883105,-25.8977166669086,14.8814639214017,76.8692984966413,26.4504540922862,-85.863644847358,-72.4485361100788,-30.3435036631177,-45.9136836410974,33.3384486276092,-27.8303222548562,-5.50812637275342, , , , , , , , , , , , , , , , , , , , , , , , , , , , , , , , , , , , , , , , , , , , , , , , , , , , , , , , , , , , ,
-40.7846227467267,-28.3988261024637,12.3857966442628,77.1769538364139,26.5072753252792,-86.4763301599806,-72.5071113966934,-29.8578479356773,-45.4920470215536,34.5917244245949,-26.5852096954948,-8.00651472910044, , , , , , , , , , , , , , , , , , , , , , , , , , , , , , , , , , , , , , , , , , , , , , , , , , , , , , , , , , , , ,
-40.7746504204204,-29.9374715783558,10.8371788420645,77.5851797231104,26.5737226652842,-87.0024111295121,-72.4783558660368,-29.3577100817808,-44.8916690046597,35.3560609993878,-25.8059146312425,-9.55014636814562, , , , , , , , , , , , , , , , , , , , , , , , , , , , , , , , , , , , , , , , , , , , , , , , , , , , , , , , , , , , ,
-40.7563607974159,-31.8708875168895,8.88547328052634,78.1034236093104,26.6610190898681,-87.4366104117541,-72.3779019835642,-28.8425963530835,-44.1298101181505,36.3136241571524,-24.8209170389712,-11.4927071181816, , , , , , , , , , , , , , , , , , , , , , , , , , , , , , , , , , , , , , , , , , , , , , , , , , , , , , , , , , , , ,
-40.7478456123858,-34.1832954651757,6.56455014721006,78.7340126617864,26.7739170560591,-87.7814473056969,-72.2294308506635,-28.3200614746506,-43.2339188955615,37.4655705387804,-23.656197879798,-13.8093726589828, , , , , , , , , , , , , , , , , , , , , , , , , , , , , , , , , , , , , , , , , , , , , , , , , , , , , , , , , , , , ,
-40.7774381382187,-36.7841910197727,3.99324711844586,79.4715197643109,26.9100958702833,-88.0474157059649,-72.0632627915564,-27.8062995796824,-42.2404734445771,38.7808145789953,-22.3853426283323,-16.3954719506634, , , , , , , , , , , , , , , , , , , , , , , , , , , , , , , , , , , , , , , , , , , , , , , , , , , , , , , , , , , , ,
-40.8819681958879,-38.7777419715096,2.10422622437817,80.302807292348,27.0602505711528,-88.2524772436694,-71.9143457429146,-27.3257511186921,-41.1931790258741,39.8298550836984,-21.4930972101331,-18.3367578735657, , , , , , , , , , , , , , , , , , , , , , , , , , , , , , , , , , , , , , , , , , , , , , , , , , , , , , , , , , , , ,
-41.1040957512423,-41.3582648664774,-0.254169115235257,81.2077652872054,27.2088711816844,-88.4209172600314,-71.8198363391029,-26.9097323914595,-40.1406354934369,41.2311803088595,-20.4249633180036,-20.8062169908563, , , , , , , , , , , , , , , , , , , , , , , , , , , , , , , , , , , , , , , , , , , , , , , , , , , , , , , , , , , , ,
-41.4888623924768,-43.5628382743615,-2.07397588188486,82.16068444903,27.3356594034011,-88.5816590634971,-71.81648638493,-26.5942144212251,-39.13363675308,42.5258503334188,-19.707443255296,-22.8184070781232, , , , , , , , , , , , , , , , , , , , , , , , , , , , , , , , , , , , , , , , , , , , , , , , , , , , , , , , , , , , ,
-42.0796952874637,-45.7311503884067,-3.65145510094312,83.1321283758429,27.4174525699743,-88.7661774205246,-71.9380383058693,-26.4169847264885,-38.222300846577,43.9054228379349,-19.2141200932604,-24.6913027446749, , , , , , , , , , , , , , , , , , , , , , , , , , , , , , , , , , , , , , , , , , , , , , , , , , , , , , , , , , , , ,
-42.9142083906095,-48.5576714448774,-5.64346305426803,84.0911068495427,27.4304384259806,-89.0062024301888,-72.2128240209934,-26.4145136856781,-37.4532615557068,45.7359399177431,-18.6353726681708,-27.1005672495727, , , , , , , , , , , , , , , , , , , , , , , , , , , , , , , , , , , , , , , , , , , , , , , , , , , , , , , , , , , , ,
-44.0202350487531,-50.9200813293054,-6.89984628055238,85.0073220095665,27.3524024060055,-89.3314416846796,-72.6617578269746,-26.6188927199116,-36.867169048879,47.4701581890289,-18.5601943841004,-28.9099638049289, , , , , , , , , , , , , , , , , , , , , , , , , , , , , , , , , , , , , , , , , , , , , , , , , , , , , , , , , , , , ,
-45.4125492589203,-53.3659583483913,-7.95340908947118,85.8532700463211,27.1647785651774,-89.767547033987,-73.2968995113999,-27.0551880268588,-36.496726364769,49.3892538036555,-18.7295700847246,-30.6596837189312, , , , , , , , , , , , , , , , , , , , , , , , , , , , , , , , , , , , , , , , , , , , , , , , , , , , , , , , , , , , ,
-47.0906616158463,-55.7870210625483,-8.69635944670212,86.6060244581301,26.8543505752863,-90.3345034566245,-74.1207182966175,-27.7394598473261,-36.3654180769114,51.4388413391969,-19.1971510845721,-32.2416902546252, , , , , , , , , , , , , , , , , , , , , , , , , , , , , , , , , , , , , , , , , , , , , , , , , , , , , , , , , , , , ,
-49.0379253778098,-58.3470548935908,-9.30912951578115,87.248582904538,26.414523041002,-91.0455345462646,-75.1261043856317,-28.6775636165508,-36.4869765902213,53.6924901357,-19.8643979310144,-33.828092204686, , , , , , , , , , , , , , , , , , , , , , , , , , , , , , , , , , , , , , , , , , , , , , , , , , , , , , , , , , , , ,
-51.2220139104334,-60.7843987501117,-9.56238483967839,87.7707082278847,25.8461261892587,-91.9065325866503,-76.2970750644985,-29.8647220168121,-36.8655130173163,56.0032063302722,-20.8298145353776,-35.173391794895, , , , , , , , , , , , , , , , , , , , , , , , , , , , , , , , , , , , , , , , , , , , , , , , , , , , , , , , , , , , ,
-53.5966928160995,-63.1483494991083,-9.55165668300891,88.1692288079329,25.1577279453528,-92.9159661345296,-77.6100484628735,-31.285775986791,-37.4961577801269,58.3725211576036,-22.0225180665454,-36.3500030910586, , , , , , , , , , , , , , , , , , , , , , , , , , , , , , , , , , , , , , , , , , , , , , , , , , , , , , , , , , , , ,
-56.1047295235703,-65.3804162030617,-9.27568667949159,88.4477903784186,24.3654215673864,-94.0652091997761,-79.0355348415295,-32.9160026905451,-38.3660387584447,60.7425728633157,-23.4145214220394,-37.3280514412766, , , , , , , , , , , , , , , , , , , , , , , , , , , , , , , , , , , , , , , , , , , , , , , , , , , , , , , , , , , , ,
-58.6817340503324,-67.4750161585918,-8.79328210825959,88.6160786531011,23.4920536500122,-95.3392537798821,-80.5401086989671,-34.7224107965164,-39.4554606539481,63.0783751044618,-24.9442259710365,-38.1341491334257, , , , , , , , , , , , , , , , , , , , , , , , , , , , , , , , , , , , , , , , , , , , , , , , , , , , , , , , , , , , ,
-61.2606660510151,-69.3428738700441,-8.08220781902914,88.6885635439471,22.565877380427,-96.717777841611,-82.0885438355061,-36.6654526066691,-40.7391998848097,65.3017699605293,-26.5892291159931,-38.7125408445366, , , , , , , , , , , , , , , , , , , , , , , , , , , , , , , , , , , , , , , , , , , , , , , , , , , , , , , , , , , , ,
-63.7766602052602,-70.9930367805285,-7.21637657526846,88.6828534129661,21.6186736953711,-98.1765280035741,-83.6460001468508,-38.7011020456416,-42.1878641859756,67.384848492894,-28.2801418149959,-39.1047066778985, , , , , , , , , , , , , , , , , , , , , , , , , , , , , , , , , , , , , , , , , , , , , , , , , , , , , , , , , , , , ,
-66.1717422825618,-72.4019932633377,-6.23025098077598,88.6177926684067,20.6834727342055,-99.6889444287813,-85.1801432116879,-40.7832270547919,-43.7692763085172,69.2868677729494,-29.970745650893,-39.3161221220568, , , , , , , , , , , , , , , , , , , , , , , , , , , , , , , , , , , , , , , , , , , , , , , , , , , , , , , , , , , , ,
-68.3989831607753,-73.5544511466302,-5.15546798585497,88.5114811572361,19.7920987297745,-101.227913697604,-86.6630582978271,-42.8661352201118,-45.4498284232252,70.9767171537024,-31.6217575874603,-39.3549595662426, , , , , , , , , , , , , , , , , , , , , , , , , , , , , , , , , , , , , , , , , , , , , , , , , , , , , , , , , , , , ,
-70.4256997768919,-74.4443114950107,-4.01861171811886,88.3794178607192,18.9728066274354,-102.767500645209,-88.0728035539537,-44.9071100847814,-47.1957291522125,72.435005635951,-33.2035440293866,-39.2314616065648, , , , , , , , , , , , , , , , , , , , , , , , , , , , , , , , , , , , , , , , , , , , , , , , , , , , , , , , , , , , ,
-72.2354443921345,-75.075361402444,-2.83991701030966,88.2329541105037,18.2482491524414,-104.284506706638,-89.3944592204733,-46.868715433196,-48.9740531951036,73.6554028972889,-34.6977636909125,-38.9576392063768, , , , , , , , , , , , , , , , , , , , , , , , , , , , , , , , , , , , , , , , , , , , , , , , , , , , , , , , , , , , ,
-73.8286771778884,-75.4616757504223,-1.63299857253402,88.0781919497492,17.6339326431633,-105.759731800545,-90.6205783293738,-48.7206442409546,-50.7535205910332,74.6451764641551,-36.0978393026773,-38.5473371614782, , , , , , , , , , , , , , , , , , , , , , , , , , , , , , , , , , , , , , , , , , , , , , , , , , , , , , , , , , , , ,
-75.2221478921803,-75.627672206496,-0.405524314315826,87.9154161498169,17.1372487789368,-107.17884915952,-91.7510043118744,-50.4409172003339,-52.5049665485106,75.4249100493378,-37.4083117889323,-38.0165982604059, , , , , , , , , , , , , , , , , , , , , , , , , , , , , , , , , , , , , , , , , , , , , , , , , , , , , , , , , , , , ,
-76.4471039264475,-75.6077583186643,0.839345607783102,87.7391246203394,16.7571413435385,-108.532817747661,-92.7920681919034,-52.0162820776003,-54.2014940265342,76.0274311225555,-38.6432247671154,-37.3842063554406, , , , , , , , , , , , , , , , , , , , , , , , , , , , , , , , , , , , , , , , , , , , , , , , , , , , , , , , , , , , ,
-77.5465025846344,-75.445535232051,2.10096735258331,87.5387041977914,16.4844615894496,-109.817774052502,-93.7552200535067,-53.4417414144651,-55.8183335148145,76.4960189083424,-39.8237349686089,-36.6722839397338, , , , , , , , , , , , , , , , , , , , , , , , , , , , , , , , , , , , , , , , , , , , , , , , , , , , , , , , , , , , ,
-78.5714544013454,-75.1925320944296,3.37892230691567,87.2997504502115,16.3030358204896,-111.034398251584,-94.6552098855537,-54.7192552910884,-57.3324864983772,76.8819932478872,-40.9751883541306,-35.906804893757, , , , , , , , , , , , , , , , , , , , , , , , , , , , , , , , , , , , , , , , , , , , , , , , , , , , , , , , , , , , ,
-79.5771750748513,-74.9064313540642,4.67074372078694,87.0059340338223,16.1913836773403,-112.186847730069,-95.5080168451189,-55.8558121004671,-58.7223019155013,77.2418032144574,-42.1239593978192,-35.1178438166386, , , , , , , , , , , , , , , , , , , , , , , , , , , , , , , , , , , , , , , , , , , , , , , , , , , , , , , , , , , , ,
-80.6187680897974,-74.6487546111166,5.97001347868063,86.6411999608678,16.1249017140961,-113.281458532138,-96.3288037713487,-56.8611883991926,-59.9671967120822,77.6337613504567,-43.2943907842391,-34.339370566218, , , , , , , , , , , , , , , , , , , , , , , , , , , , , , , , , , , , , , , , , , , , , , , , , , , , , , , , , , , , ,
-81.7471690846041,-74.4820428235276,7.26512626107642,86.1920088588565,16.0782281700425,-114.325472337868,-97.1301988568688,-57.7457820398832,-61.0477379869119,78.1146059540655,-44.5061476728403,-33.6084582812256, , , , , , , , , , , , , , , , , , , , , , , , , , , , , , , , , , , , , , , , , , , , , , , , , , , , , , , , , , , , ,
-83.0055351397866,-74.4666591458038,8.53887599398261,85.6493324565982,16.0274903968301,-115.326015709756,-97.9211535652743,-58.5188798488996,-61.9462340592942,78.7360971427949,-45.7722055668847,-32.9638915759106, , , , , , , , , , , , , , , , , , , , , , , , , , , , , , , , , , , , , , , , , , , , , , , , , , , , , , , , , , , , ,
-84.4262771419856,-74.6574295814472,9.76884756053828,85.0101912060113,15.9522074243737,-116.289455663362,-98.7065102372404,-59.1876206756569,-62.6478524267995,79.5418533617161,-47.097562351262,-32.4442910104545, , , , , , , , , , , , , , , , , , , , , , , , , , , , , , , , , , , , , , , , , , , , , , , , , , , , , , , , , , , , ,
-86.028861607373,-75.1004036642851,10.9284579430877,84.2786291781705,15.836730169831,-117.221132301629,-99.4872726782899,-59.756762614459,-63.1421347387262,80.5646326358287,-48.4786597752304,-32.0859728605987, , , , , , , , , , , , , , , , , , , , , , , , , , , , , , , , , , , , , , , , , , , , , , , , , , , , , , , , , , , , ,
-87.8184789345794,-75.8300560716057,11.9884228629736,83.4661149120707,15.6711964256409,-118.12537649059,-100.261446954741,-60.2291968949738,-63.4246564140022,81.8242675030922,-49.9034508987766,-31.920816604316, , , , , , , , , , , , , , , , , , , , , , , , , , , , , , , , , , , , , , , , , , , , , , , , , , , , , , , , , , , , ,
-89.7856659078329,-76.8672310057956,12.9184349020372,82.5914039497787,15.4520201733253,-119.005685543893,-101.025237004305,-60.6070154382223,-63.498517437213,83.3264484568139,-51.3520504049351,-31.9743980518792, , , , , , , , , , , , , , , , , , , , , , , , , , , , , , , , , , , , , , , , , , , , , , , , , , , , , , , , , , , , ,
-91.9069363450845,-78.2180314905441,13.6889048545403,81.6798992939374,15.1819282738258,-119.864943850479,-101.774352583349,-60.8928679998732,-63.3753666293368,85.062483917814,-52.7979205998125,-32.2645633180019, , , , , , , , , , , , , , , , , , , , , , , , , , , , , , , , , , , , , , , , , , , , , , , , , , , , , , , , , , , , ,
-94.1463920562139,-79.8736995653383,14.2726924908754,80.7625371952289,14.8695484243285,-120.705606173347,-102.505205398659,-61.0913396588043,-63.07573877784,87.0100458107758,-54.2095422735447,-32.8005035372314, , , , , , , , , , , , , , , , , , , , , , , , , , , , , , , , , , , , , , , , , , , , , , , , , , , , , , , , , , , , ,
-96.4581674319524,-81.8113802134505,14.6467872185018,79.8742439035744,14.5285841835414,-121.529784462183,-103.215810831557,-61.2101147884699,-62.62858728655,89.1347738227011,-55.5524773252272,-33.5822964974743, , , , , , , , , , , , , , , , , , , , , , , , , , , , , , , , , , , , , , , , , , , , , , , , , , , , , , , , , , , , ,
-98.7894359701234,-83.995556091376,14.7938798787472,79.0520524335303,14.1766804783914,-122.339189612415,-103.906258696116,-61.260742007466,-62.0699945189289,91.3924960307494,-56.7916579244353,-34.6008381063144, , , , , , , , , , , , , , , , , , , , , , , , , , , , , , , , , , , , , , , , , , , , , , , , , , , , , , , , , , , , ,
-101.083617226183,-86.3798876730896,14.7037295530935,78.3330093053558,13.8341412678172,-123.134883668738,-104.578660144167,-61.2588635583622,-61.4411257088101,93.7317524496361,-57.8936733896385,-35.8380790599981, , , , , , , , , , , , , , , , , , , , , , , , , , , , , , , , , , , , , , , , , , , , , , , , , , , , , , , , , , , , ,
-103.283410295419,-88.9091835449474,14.3742267504718,77.7520212388776,13.5226707441687,-123.91680776372,-105.236525125672,-61.2238250693477,-60.7855617637572,96.096296920183,-58.8288185229457,-37.2674783972378, , , , , , , , , , , , , , , , , , , , , , , , , , , , , , , , , , , , , , , , , , , , , , , , , , , , , , , , , , , , ,
-105.333364666117,-91.5212576385977,13.8121070275193,77.3397929109584,13.2642666635779,-124.683079856934,-105.883585574491,-61.1776448772285,-60.1462063539774,98.4273111523571,-59.5727358468183,-38.8545753055392, , , , , , , , , , , , , , , , , , , , , , , , , , , , , , , , , , , , , , , , , , , , , , , , , , , , , , , , , , , , ,
-107.181853881083,-94.1485091425788,13.0333447385038,77.1209990691042,13.0803229928099,-125.42910539277,-106.522153632209,-61.1433945705294,-59.5620126692603,100.66518151183,-60.1075993097933,-40.5575822020375, , , , , , , , , , , , , , , , , , , , , , , , , , , , , , , , , , , , , , , , , , , , , , , , , , , , , , , , , , , , ,
-108.782472611507,-96.7191720954739,12.063300516033,76.9059281307271,12.9909259120829,-126.146599366902,-107.151178468792,-61.1431113398922,-59.064806082905,102.75082235349,-60.4228865637701,-42.3279357897204, , , , , , , , , , , , , , , , , , , , , , , , , , , , , , , , , , , , , , , , , , , , , , , , , , , , , , , , , , , , ,
-110.094964575468,-99.1582876566708,10.9366769187973,77.0168214470015,13.0142731408377,-126.822661106352,-107.764222010157,-61.1954136249444,-58.6764794643926,104.626626116069,-60.5158207471328,-44.1108053689368, , , , , , , , , , , , , , , , , , , , , , , , , , , , , , , , , , , , , , , , , , , , , , , , , , , , , , , , , , , , ,
-111.085788504729,-101.388520225688,9.69726827904059,77.1774037309063,13.1661318312262,-127.43905819287,-108.34759952712,-61.3130174572493,-58.4068045192566,106.237154365208,-60.391528391885,-45.8456259733239, , , , , , , , , , , , , , , , , , , , , , , , , , , , , , , , , , , , , , , , , , , , , , , , , , , , , , , , , , , , ,
-111.728385169343,-103.33096311311,8.39742205623251,77.5913906169094,13.4592849088167,-127.971857758342,-108.878921623465,-61.5003552714672,-58.2520441707305,107.529674141226,-60.0629036127876,-47.4667705284387, , , , , , , , , , , , , , , , , , , , , , , , , , , , , , , , , , , , , , , , , , , , , , , , , , , , , , , , , , , , ,
-112.003182254271,-104.906073804101,7.09710845017058,78.2435142539387,13.9029780185181,-128.391503560839,-109.326241736115,-61.7514966587209,-58.1944848375577,108.454628029186,-59.5501453522211,-48.904482676965, , , , , , , , , , , , , , , , , , , , , , , , , , , , , , , , , , , , , , , , , , , , , , , , , , , , , , , , , , , , ,
-111.897391468348,-106.034857678361,5.8625337899865,79.107088739085,14.502421591618,-128.663400132388,-109.647978968873,-62.0485788250601,-58.2029472031655,108.966124573354,-58.8799626291671,-50.0861619441872, , , , , , , , , , , , , , , , , , , , , , , , , , , , , , , , , , , , , , , , , , , , , , , , , , , , , , , , , , , , ,
-111.404693647157,-106.640392209592,4.76430143756527,80.1455870102639,15.2583948792347,-128.749042595989,-109.793755356834,-62.3609716667773,-58.2342789346042,109.022542928374,-58.0844975423613,-50.9380453860133, , , , , , , , , , , , , , , , , , , , , , , , , , , , , , , , , , , , , , , , , , , , , , , , , , , , , , , , , , , , ,
-110.524936875346,-106.649758092225,3.87517878312126,81.3149461384332,16.1669629414738,-128.607706378778,-109.706239372406,-62.645400862806,-58.2357713827474,108.587347483785,-57.2000578292338,-51.3872896545518, , , , , , , , , , , , , , , , , , , , , , , , , , , , , , , , , , , , , , , , , , , , , , , , , , , , , , , , , , , , ,
-109.263965113572,-105.996419619295,3.26754549427692,82.5664011774151,17.2193039745577,-128.198661985647,-109.32400241666,-62.8472015070749,-58.1483690949822,107.630192366433,-56.2657553039244,-51.3644370625088, , , , , , , , , , , , , , , , , , , , , , , , , , , , , , , , , , , , , , , , , , , , , , , , , , , , , , , , , , , , ,
-107.63365000237,-104.6230647966,3.01058520576935,83.8496839190425,18.4016728662324,-127.483806617445,-108.585276103221,-62.9027663492854,-57.9104665765675,106.128357399485,-55.3221176040696,-50.8062397954154, , , , , , , , , , , , , , , , , , , , , , , , , , , , , , , , , , , , , , , , , , , , , , , , , , , , , , , , , , , , ,
-105.652138320218,-102.484864895134,3.16727342508374,85.1164480692196,19.6955664936339,-126.430530604788,-107.432371655613,-62.7431053121536,-57.4620310303956,104.068501607676,-54.409705872651,-49.6587957350252, , , , , , , , , , , , , , , , , , , , , , , , , , , , , , , , , , , , , , , , , , , , , , , , , , , , , , , , , , , , ,
-103.344274151139,-99.5530354986347,3.7912386525043,86.3237654129416,21.0781652532858,-125.014585609979,-105.816417613902,-62.2982815037039,-56.7487663581747,101.448654824887,-53.5677564018218,-47.8808984230652, , , , , , , , , , , , , , , , , , , , , , , , , , , , , , , , , , , , , , , , , , , , , , , , , , , , , , , , , , , , ,
-100.742110829986,-95.8184743421662,4.92363648781951,87.5016203139909,22.5230928999638,-123.2227010994,-103.70200621731,-61.5023705067077,-55.7260406624995,98.2802925860757,-52.8328736589027,-45.4474189271733, , , , , , , , , , , , , , , , , , , , , , , , , , , , , , , , , , , , , , , , , , , , , , , , , , , , , , , , , , , , ,
-97.885386300697,-91.2951317145842,6.59025458611272,88.8994107284049,24.0014814511466,-121.054704272252,-101.071318989771,-60.298528287939,-54.3623249858596,94.5902590076403,-52.2378204434049,-42.3524385642357, , , , , , , , , , , , , , , , , , , , , , , , , , , , , , , , , , , , , , , , , , , , , , , , , , , , , , , , , , , , ,
-94.8218019108234,-86.0226805491009,8.79912136172236,90.2351237695256,25.4832733977373,-118.524934536276,-97.9273289047083,-58.6437494898156,-52.6419245799028,90.4222412299618,-51.8104616362729,-38.6117795936892, , , , , , , , , , , , , , , , , , , , , , , , , , , , , , , , , , , , , , , , , , , , , , , , , , , , , , , , , , , , ,
-91.6069320239543,-80.0680412299369,11.5388907940173,91.4748829501513,26.9386560429161,-115.66280046014,-94.2957446688732,-56.5129339807476,-50.566820710153,85.8374866269453,-51.5729114089859,-34.2645752179598, , , , , , , , , , , , , , , , , , , , , , , , , , , , , , , , , , , , , , , , , , , , , , , , , , , , , , , , , , , , ,
-88.3036020023458,-73.5253876483915,14.7782143539542,92.8582745375653,28.339508739502,-112.512391928735,-90.2254601545229,-53.9019352118661,-48.1574805394006,80.9144948253684,-51.5409081781501,-29.3735866472187, , , , , , , , , , , , , , , , , , , , , , , , , , , , , , , , , , , , , , , , , , , , , , , , , , , , , , , , , , , , ,
-84.9806022517539,-66.5143830951233,18.4662191566305,94.048770260492,29.6607474506484,-109.131126212895,-85.7873888325387,-50.8293326020666,-45.4525398833816,75.7474926734383,-51.7234107041923,-24.0240819692464, , , , , , , , , , , , , , , , , , , , , , , , , , , , , , , , , , , , , , , , , , , , , , , , , , , , , , , , , , , , ,
-81.7106658591917,-59.1765347390074,22.5341311201841,95.3841611195188,30.881459254903,-105.587479926529,-81.0716953712875,-47.3367561288289,-42.5073252043273,70.4436002990992,-52.122398489688,-18.3212018094116, , , , , , , , , , , , , , , , , , , , , , , , , , , , , , , , , , , , , , , , , , , , , , , , , , , , , , , , , , , , ,
-78.5677344128993,-51.66970702443,26.8980273884692,96.98349494352,31.9857228353573,-101.957942133648,-76.1835755477987,-43.4876932821326,-39.3912562698592,65.1187207186643,-52.7328809006843,-12.3858398179804, , , , , , , , , , , , , , , , , , , , , , , , , , , , , , , , , , , , , , , , , , , , , , , , , , , , , , , , , , , , ,
-75.6236510348683,-44.1610010279691,31.4626500068991,98.5082617325033,32.9630134741266,-98.3234017771869,-71.2378616673163,-39.364814363764,-36.1842489493919,59.8923260314183,-53.5431505208837,-6.34917551053499, , , , , , , , , , , , , , , , , , , , , , , , , , , , , , , , , , , , , , , , , , , , , , , , , , , , , , , , , , , , ,
-72.9445128892222,-36.8183812235752,36.1261316656469,100.268326918683,33.8081109329301,-94.7652295947362,-66.3528250810459,-35.0659499403342,-32.9723064853417,54.8814470563984,-54.5353222774346,-0.346124778964108, , , , , , , , , , , , , , , , , , , , , , , , , , , , , , , , , , , , , , , , , , , , , , , , , , , , , , , , , , , , ,
-70.5869601555416,-29.8015918475682,40.7853683079733,102.127753670231,34.5204848118722,-91.3613156862208,-61.6436034053529,-30.6989413648066,-29.8425413588416,50.1942760015546,-55.6861642317575,5.49188823020254, , , , , , , , , , , , , , , , , , , , , , , , , , , , , , , , , , , , , , , , , , , , , , , , , , , , , , , , , , , , ,
-68.5946748733231,-23.2530247574493,45.3416501158737,104.360066128987,35.1032183451187,-88.1822898607411,-57.2157027873031,-26.3756661104044,-26.8779110427539,45.9238498153859,-56.9681624945984,11.0443126792122, , , , , , , , , , , , , , , , , , , , , , , , , , , , , , , , , , , , , , , , , , , , , , , , , , , , , , , , , , , , ,
-66.99533190264,-17.2892547129512,49.7060771896887,106.522281024286,35.5616093351961,-85.2881159079733,-53.159025922708,-22.2056187093842,-24.1519860358007,42.1422933077953,-58.3507045461644,16.2084112383687, , , , , , , , , , , , , , , , , , , , , , , , , , , , , , , , , , , , , , , , , , , , , , , , , , , , , , , , , , , , ,
-65.7982072104228,-11.9939329846175,53.8042742258052,108.897027443231,35.8549420044907,-82.7252396307605,-49.5428595256953,-18.2894984532804,-21.7240977308079,38.8960700975199,-59.8012407181141,20.9051706205939, , , , , , , , , , , , , , , , , , , , , , , , , , , , , , , , , , , , , , , , , , , , , , , , , , , , , , , , , , , , ,
-64.9926137573725,-7.41263019923542,57.579983558137,111.568458486381,36.0627498081707,-80.5244745204155,-46.4122071070196,-14.713289864703,-19.6352222285947,36.2026219783036,-61.2862986577548,25.0836766794508, , , , , , , , , , , , , , , , , , , , , , , , , , , , , , , , , , , , , , , , , , , , , , , , , , , , , , , , , , , , ,
-64.5472999319072,-3.55006282549539,60.9972371064116,114.273282392673,36.1555615816241,-78.6997882079772,-43.7857483518911,-11.5432870049741,-17.9049210797244,34.0486813787009,-62.7722685191595,28.7235871404581, , , , , , , , , , , , , , , , , , , , , , , , , , , , , , , , , , , , , , , , , , , , , , , , , , , , , , , , , , , , ,
-64.4109105358615,-0.369944377473985,64.0409661583874,116.8350636434,36.135475141492,-77.2480760469225,-41.655536931215,-8.82239768626064,-16.5295705110236,32.3904274566674,-64.2259383471246,31.8355108904567, , , , , , , , , , , , , , , , , , , , , , , , , , , , , , , , , , , , , , , , , , , , , , , , , , , , , , , , , , , , ,
-64.5135805108733,2.20251732690025,66.7160978377735,119.353376709996,35.9136380950498,-76.1498870587983,-39.9883478538017,-6.56790206248458,-15.48198580401,31.1555315919862,-65.6148391743235,34.4593075823369, , , , , , , , , , , , , , , , , , , , , , , , , , , , , , , , , , , , , , , , , , , , , , , , , , , , , , , , , , , , ,
-64.7696996349896,4.27569606408457,69.045395699074,121.953023059293,35.6692879151262,-75.3709510773039,-38.7284152447341,-4.7706921369432,-14.7124288859097,30.2470017854522,-66.9075476670319,36.6605458815793, , , , , , , , , , , , , , , , , , , , , , , , , , , , , , , , , , , , , , , , , , , , , , , , , , , , , , , , , , , , ,
-65.0818275887665,5.98465637872681,71.0664839674932,124.178129076326,35.1014245959413,-74.8642950510226,-37.8012111847287,-3.39592926154358,-14.1509108735067,29.5485856050195,-68.0741557781299,38.52557017311, , , , , , , , , , , , , , , , , , , , , , , , , , , , , , , , , , , , , , , , , , , , , , , , , , , , , , , , , , , , ,
-65.3456265283127,7.48294922488003,72.8285757531926,125.616015293211,34.3332388977749,-74.5727508061815,-37.1179144194412,-2.38502593653143,-13.7106714942776,28.931338651716,-69.0871011407527,40.1557624890363, , , , , , , , , , , , , , , , , , , , , , , , , , , , , , , , , , , , , , , , , , , , , , , , , , , , , , , , , , , , ,
-65.4555050668552,8.933840619786,74.3893456866411,126.309181666311,33.5307002613213,-74.4317219477941,-36.5802728290239,-1.65885009814927,-13.2927053094988,28.2608322235343,-69.9224253767482,41.6615931532135, , , , , , , , , , , , , , , , , , , , , , , , , , , , , , , , , , , , , , , , , , , , , , , , , , , , , , , , , , , , ,
-65.3104682982782,10.5016984463073,75.8121667445854,126.443672410678,32.5652828849381,-74.3721370670786,-36.0856248406524,-1.12202253074,-12.7911693468714,27.4043849259851,-70.5613175214318,43.1569325954464, , , , , , , , , , , , , , , , , , , , , , , , , , , , , , , , , , , , , , , , , , , , , , , , , , , , , , , , , , , , ,
-64.8195302731863,12.3441467736251,77.1636770468113,125.476667499561,31.3506151486971,-74.323520133444,-35.5318726047058,-0.668109900411963,-12.099422683065,26.2376917497803,-70.9916036599989,44.7539119102182, , , , , , , , , , , , , , , , , , , , , , , , , , , , , , , , , , , , , , , , , , , , , , , , , , , , , , , , , , , , ,
-63.9060608368807,14.6054083763302,78.5114692132108,123.215347196973,29.8591819188818,-74.2170582308667,-34.8221915955026,-0.185421386303268,-11.1163304249423,24.6503262302749,-71.2087650250458,46.5584387947705, , , , , , , , , , , , , , , , , , , , , , , , , , , , , , , , , , , , , , , , , , , , , , , , , , , , , , , , , , , , ,
-62.5106293835457,17.4110159118223,79.9216452953678,119.861673337496,28.0672417432142,-73.9884917688813,-33.8692519698889,0.436961840594087,-9.75236684628354,22.5498067358614,-71.2161373394568,48.6663306035951, , , , , , , , , , , , , , , , , , , , , , , , , , , , , , , , , , , , , , , , , , , , , , , , , , , , , , , , , , , , ,
-60.5922059414236,20.8638327276792,81.4560386691026,115.506707783304,25.9573693021273,-73.5806427451442,-32.5987547859841,1.30331773406158,-7.93503304472058,19.8641866068719,-71.0241223052631,51.1599356983909, , , , , , , , , , , , , , , , , , , , , , , , , , , , , , , , , , , , , , , , , , , , , , , , , , , , , , , , , , , , ,
-58.1278810966004,25.0411640057312,83.1690451023314,109.857355246089,23.52107479453,-72.9454442867812,-30.9521595366668,2.50592408864841,-5.61318189866889,16.5433585454343,-70.648463099466,54.1051045540313, , , , , , , , , , , , , , , , , , , , , , , , , , , , , , , , , , , , , , , , , , , , , , , , , , , , , , , , , , , , ,
-55.1114872269467,29.99270743143,85.1041946583766,102.549517527214,20.7613300582611,-72.0454137777266,-28.8885707248557,4.12046936902423,-2.75998526029752,12.559389897758,-70.1078409426617,57.5484510449033, , , , , , , , , , , , , , , , , , , , , , , , , , , , , , , , , , , , , , , , , , , , , , , , , , , , , , , , , , , , ,
-51.5516051600442,35.8492435251635,87.4008486852075,94.3433280511062,17.6947610052181,-70.8545818780601,-26.3858186907814,6.20240371851013,0.625570812429068,7.85118081744001,-69.4762269226259,61.6250461051855, , , , , , , , , , , , , , , , , , , , , , , , , , , , , , , , , , , , , , , , , , , , , , , , , , , , , , , , , , , , ,
-47.4694241397085,43.2537042202412,90.7231283599495,85.0923462936257,14.3532206989011,-69.3589254650371,-23.4407918215209,8.78434066483388,4.51865848353355,2.10785995973335,-69.0962762498291,66.9884162900954, , , , , , , , , , , , , , , , , , , , , , , , , , , , , , , , , , , , , , , , , , , , , , , , , , , , , , , , , , , , ,
-42.896813699066,50.3623418153095,93.2591555143754,74.8798241879286,10.7844520157124,-67.5563577069088,-20.0690652313022,11.8745945124163,8.86996674364189,-3.7327640581221,-68.0779846067208,71.8107486648425, , , , , , , , , , , , , , , , , , , , , , , , , , , , , , , , , , , , , , , , , , , , , , , , , , , , , , , , , , , , ,
-37.8748015497057,58.2277284744461,96.1025300241516,63.9067886399042,7.05159559472772,-65.456318162596,-16.3038499089844,15.4569275454712,13.608317973571,-10.1764634623705,-66.9886657869287,77.1651292492988, , , , , , , , , , , , , , , , , , , , , , , , , , , , , , , , , , , , , , , , , , , , , , , , , , , , , , , , , , , , ,
-32.4524806803809,66.5447258834198,98.9972065638006,52.4085515040751,3.23140429320583,-63.0789903248502,-12.1942748438992,19.4915599959387,18.6443822109498,-17.0461226015198,-65.7248436220908,82.7709662236102, , , , , , , , , , , , , , , , , , , , , , , , , , , , , , , , , , , , , , , , , , , , , , , , , , , , , , , , , , , , ,
-26.6862370491136,75.4487753560934,102.135012405207,40.6452447506458,-0.588826497355932,-60.4541660422725,-7.80302791008044,23.9174402600458,23.875293438473,-24.3812691534902,-64.4106247271603,88.7918938806502, , , , , , , , , , , , , , , , , , , , , , , , , , , , , , , , , , , , , , , , , , , , , , , , , , , , , , , , , , , , ,
-20.296417445203,84.730619314586,105.027036759789,28.8905422845071,-4.31544795290254,-57.6197892367701,-3.20342857406318,28.6556737382475,29.1899203082479,-32.2171009346919,-62.661727102496,94.8788280371874, , , , , , , , , , , , , , , , , , , , , , , , , , , , , , , , , , , , , , , , , , , , , , , , , , , , , , , , , , , , ,
-13.6639254229731,94.1523418510963,107.816267274069,17.4191489836874,-7.85346888104339,-54.6202421274456,1.52392542055016,33.6138893387479,34.4744817219643,-40.2442082140619,-60.7400963485213,100.984304562583, , , , , , , , , , , , , , , , , , , , , , , , , , , , , , , , , , , , , , , , , , , , , , , , , , , , , , , , , , , , ,
-7.03225008806544,103.630147825625,110.66239791369,6.49381418487778,-11.1119946357487,-51.5044687552123,6.29473264732896,38.6912244166195,39.6181485121349,-48.2989488687799,-58.8473240008777,107.146272869657, , , , , , , , , , , , , , , , , , , , , , , , , , , , , , , , , , , , , , , , , , , , , , , , , , , , , , , , , , , , ,
-0.63221464366228,112.800720085834,113.432934729496,-3.647235140097,-14.0096416253408,-48.324053068953,11.0245411666934,43.7835539244858,44.5182556539608,-56.0842527210859,-57.032574686579,113.116827407665, , , , , , , , , , , , , , , , , , , , , , , , , , , , , , , , , , , , , , , , , , , , , , , , , , , , , , , , , , , , ,
5.62514559035253,121.727762299841,116.102616709488,-12.80149590399,-16.4794554109174,-45.1313814062017,15.6320265440769,48.7885749354679,49.0847732348879,-63.676453945097,-55.2387355595679,118.915189504665, , , , , , , , , , , , , , , , , , , , , , , , , , , , , , , , , , , , , , , , , , , , , , , , , , , , , , , , , , , , ,
11.9606140308717,130.220065019137,118.259450988265,-20.8111582045951,-18.4728878835638,-41.978016697451,20.0417613282838,53.6103802104086,53.2437527751252,-71.0903395250048,-53.1494184786969,124.239758003701, , , , , , , , , , , , , , , , , , , , , , , , , , , , , , , , , , , , , , , , , , , , , , , , , , , , , , , , , , , , ,
18.1180640131377,138.101310135068,119.983246121931,-27.5691947779551,-19.9624822999136,-38.913385650047,24.1863050020919,58.1632207587721,56.9395778466155,-78.1096870741034,-50.9325910543965,129.0422781285, , , , , , , , , , , , , , , , , , , , , , , , , , , , , , , , , , , , , , , , , , , , , , , , , , , , , , , , , , , , ,
23.6520634854475,145.277126327517,121.625062842069,-33.0222462576579,-20.9430769516541,-35.9838303516058,28.0075469542427,62.3742689910297,60.1359905417985,-84.4645949064826,-48.9864996783109,133.451094584793, , , , , , , , , , , , , , , , , , , , , , , , , , , , , , , , , , , , , , , , , , , , , , , , , , , , , , , , , , , , ,
29.2464882269571,151.674256015518,122.427767788561,-37.1703263825456,-21.4315309931248,-33.2320128980322,31.4573541289964,66.1853323838893,62.8160097451877,-90.4603721212381,-46.5906397808021,137.05101190204, , , , , , , , , , , , , , , , , , , , , , , , , , , , , , , , , , , , , , , , , , , , , , , , , , , , , , , , , , , , ,
34.4763651974144,157.212415950835,122.736050753421,-40.063664251065,-21.4651391045264,-30.6966046386777,34.4976673692113,69.5535945910159,64.9809672771821,-95.8443905741252,-44.1298427780033,139.974233352128, , , , , , , , , , , , , , , , , , , , , , , , , , , , , , , , , , , , , , , , , , , , , , , , , , , , , , , , , , , , ,
38.9620608089836,161.944252776906,122.982191967922,-41.7971958475948,-21.0990004837826,-28.4121638612142,37.1002197267822,72.4515367785084,66.6489314227364,-100.453156792945,-42.0100655794693,142.463222372414, , , , , , , , , , , , , , , , , , , , , , , , , , , , , , , , , , , , , , , , , , , , , , , , , , , , , , , , , , , , ,
43.3687256140102,165.863538701427,122.494813087417,-42.503312527663,-20.4026501031141,-26.4091213745876,39.2460106085459,74.8661999649336,67.8527533591849,-104.616132157719,-39.5630437367033,144.179175894422, , , , , , , , , , , , , , , , , , , , , , , , , , , , , , , , , , , , , , , , , , , , , , , , , , , , , , , , , , , , ,
47.3513952151405,169.075070740341,121.7236755252,-42.6774722081947,-19.4637720142785,-24.7138388352887,40.9245963613474,76.7979100281002,68.4124947512123,-108.213232977741,-37.1861401550299,145.399373132771, , , , , , , , , , , , , , , , , , , , , , , , , , , , , , , , , , , , , , , , , , , , , , , , , , , , , , , , , , , , ,
50.9260259840959,171.612450549655,120.686424565559,-42.3544170006483,-18.6703756759562,-23.3487411800402,42.1332039916703,77.4788466825012,68.8005218441176,-111.269238266876,-34.8801992907318,146.149437557607, , , , , , , , , , , , , , , , , , , , , , , , , , , , , , , , , , , , , , , , , , , , , , , , , , , , , , , , , , , , ,
54.1257998704915,173.564056863263,119.438256992771,-41.1225595642401,-17.4874087746248,-22.3325190809768,42.8341067510586,78.4521023504028,68.8280410007289,-113.844928366878,-32.65622856114,146.501156928017, , , , , , , , , , , , , , , , , , , , , , , , , , , , , , , , , , , , , , , , , , , , , , , , , , , , , , , , , , , , ,
56.9988877469119,175.026003347665,118.027115600753,-39.6777746919458,-16.3198375811545,-21.6803487596729,42.4524035545328,79.041589197124,68.7197745382838,-116.012445547289,-30.5141139269204,146.526559474209, , , , , , , , , , , , , , , , , , , , , , , , , , , , , , , , , , , , , , , , , , , , , , , , , , , , , , , , , , , , ,
59.6050522196175,176.094072648233,116.489020428615,-38.0658915363841,-15.3085300002174,-21.4040144429114,42.294661192062,79.2426301638475,68.4516224566161,-117.849562433925,-28.4419841044988,146.291546538424, , , , , , , , , , , , , , , , , , , , , , , , , , , , , , , , , , , , , , , , , , , , , , , , , , , , , , , , , , , , ,
62.0112798365446,176.855735523833,114.844455687288,-36.3935790077533,-14.4992151816888,-21.5117867056793,41.710312145929,78.6302020334212,67.9342492586622,-119.433507680189,-26.4165879253717,145.85009560556, , , , , , , , , , , , , , , , , , , , , , , , , , , , , , , , , , , , , , , , , , , , , , , , , , , , , , , , , , , , ,
64.286735911644,177.382944876944,113.0962089653,-34.9429584690337,-14.0916123647482,-22.0079398796645,40.6804950576581,78.1600732146065,67.5546933349164,-120.834840394295,-24.4047365268282,145.239576921122, , , , , , , , , , , , , , , , , , , , , , , , , , , , , , , , , , , , , , , , , , , , , , , , , , , , , , , , , , , , ,
66.4974127643218,177.72645141265,111.229038648328,-34.4415452203599,-13.7358927073521,-22.8918763882806,38.8092810020029,76.9346271665773,67.2165905609053,-122.111932088486,-22.3658129420034,144.477745030489, , , , , , , , , , , , , , , , , , , , , , , , , , , , , , , , , , , , , , , , , , , , , , , , , , , , , , , , , , , , ,
68.5909989351151,177.88495666187,109.293957726755,-33.7850538664606,-13.7089801857047,-24.1569230542651,37.0692021351296,75.7481081330736,66.5326250882115,-123.237977798493,-20.3514793958199,143.589457194312, , , , , , , , , , , , , , , , , , , , , , , , , , , , , , , , , , , , , , , , , , , , , , , , , , , , , , , , , , , , ,
70.8316377619305,177.913902673825,107.082264911894,-33.9997192720265,-14.027617107943,-25.7889377042252,34.8050331771427,73.7451769407868,66.4147615194244,-124.372770217878,-18.1253135749818,142.498083792859, , , , , , , , , , , , , , , , , , , , , , , , , , , , , , , , , , , , , , , , , , , , , , , , , , , , , , , , , , , , ,
73.1367407615287,177.763250463179,104.62650970165,-34.6262088099564,-14.689004015688,-27.7649090860623,32.3035894763269,72.3187519908805,66.4490801281035,-125.449995612354,-15.7448844700606,141.194880082414, , , , , , , , , , , , , , , , , , , , , , , , , , , , , , , , , , , , , , , , , , , , , , , , , , , , , , , , , , , , ,
75.478512767426,177.391690479606,101.91317771218,-35.6905947750225,-15.6706063876101,-30.0517642241199,29.6488732175271,70.6642663410614,66.3032048325007,-126.435101623516,-13.2173324723771,139.652434095893, , , , , , , , , , , , , , , , , , , , , , , , , , , , , , , , , , , , , , , , , , , , , , , , , , , , , , , , , , , , ,
77.9130654647218,176.745896593113,98.8328311283913,-37.2585535402868,-16.9309651604219,-32.6056270162437,26.7609666695408,67.8941716632862,66.7414706681799,-127.329481028918,-10.4598828318348,137.789363860752, , , , , , , , , , , , , , , , , , , , , , , , , , , , , , , , , , , , , , , , , , , , , , , , , , , , , , , , , , , , ,
80.3689607136519,175.768248975513,95.3992882618605,-38.9109520319736,-18.4115343893586,-35.3717926218254,23.1175718903005,66.0143702438555,67.3240801870884,-128.068604844583,-7.51516377410442,135.583768618687, , , , , , , , , , , , , , , , , , , , , , , , , , , , , , , , , , , , , , , , , , , , , , , , , , , , , , , , , , , , ,
82.6916247913881,174.404550702336,91.712925910948,-40.7919773213435,-20.0395211106448,-38.2856663974001,19.2751603421901,64.0263796813565,67.8690905385345,-128.548087746863,-4.51065055978001,133.058738306642, , , , , , , , , , , , , , , , , , , , , , , , , , , , , , , , , , , , , , , , , , , , , , , , , , , , , , , , , , , , ,
84.9958462125187,172.610590284783,87.6147440722638,-42.8304483743527,-21.7316343808236,-41.2748426016641,15.9732374351297,61.917316809681,68.7257900635978,-128.803218248651,-1.30944892987264,130.112667178523, , , , , , , , , , , , , , , , , , , , , , , , , , , , , , , , , , , , , , , , , , , , , , , , , , , , , , , , , , , , ,
87.0874320886844,170.356586090357,83.2691540016723,-45.1339942428776,-23.3985702662087,-44.2623711174102,12.6473762043603,59.6938813212493,69.6287996619915,-128.722009089521,1.90913904350597,126.812870046015, , , , , , , , , , , , , , , , , , , , , , , , , , , , , , , , , , , , , , , , , , , , , , , , , , , , , , , , , , , , ,
88.7830051626833,167.62896451068,78.8459593479968,-46.8154251237806,-24.9499832100115,-47.1710938457695,9.26299439320655,57.4964165051935,70.5945464943505,-128.205984836682,4.96852290734321,123.237461929338, , , , , , , , , , , , , , , , , , , , , , , , , , , , , , , , , , , , , , , , , , , , , , , , , , , , , , , , , , , , ,
90.0904525200759,164.429430661553,74.3389781414771,-48.2177730880754,-26.2996224855219,-49.9287404942767,5.27125774828757,55.2559191500961,71.2552298741838,-127.259941590815,7.87573718929936,119.384204401515, , , , , , , , , , , , , , , , , , , , , , , , , , , , , , , , , , , , , , , , , , , , , , , , , , , , , , , , , , , , ,
90.8002502412039,160.771737319947,69.9714870787435,-49.0852857593318,-27.3702521025148,-52.473291025281,1.62266872042434,52.5861055200695,72.0145823732298,-125.785993780576,10.4143815812301,115.371612199345, , , , , , , , , , , , , , , , , , , , , , , , , , , , , , , , , , , , , , , , , , , , , , , , , , , , , , , , , , , , ,
90.7647408294254,156.676873999992,65.9121331705664,-49.2888414243433,-28.0979572829009,-54.7579970739783,-1.30779043134991,50.2560713911328,72.5370275221169,-123.720807414709,12.4263038294295,111.294503585279, , , , , , , , , , , , , , , , , , , , , , , , , , , , , , , , , , , , , , , , , , , , , , , , , , , , , , , , , , , , ,
89.8357018060392,152.167568596054,62.3318667900143,-48.4768096815502,-28.4355026060484,-56.755453236072,-4.36137411012827,47.2316873294277,72.7039685630511,-121.001635201047,13.7519175080124,107.249717693034, , , , , , , , , , , , , , , , , , , , , , , , , , , , , , , , , , , , , , , , , , , , , , , , , , , , , , , , , , , , ,
87.8723113348003,147.263017375359,59.3907060405588,-46.9427511817693,-28.3545289802487,-58.4602206854474,-7.40109282393787,44.0153824424271,72.4705358253068,-117.56766435508,14.2408026471206,103.326861707959, , , , , , , , , , , , , , , , , , , , , , , , , , , , , , , , , , , , , , , , , , , , , , , , , , , , , , , , , , , , ,
84.6873235673379,141.974647253406,57.2873236860681,-44.3796781501981,-27.8464946411404,-59.8896854653192,-9.82959976706475,41.0154991679032,71.7194434217817,-113.330985410372,13.6999999406348,99.6309854697371, , , , , , , , , , , , , , , , , , , , , , , , , , , , , , , , , , , , , , , , , , , , , , , , , , , , , , , , , , , , ,
80.3108969982126,136.30350222589,55.9926052276771,-40.6751256372002,-26.9223352758147,-61.6499874188079,-12.1406389965878,38.2063130947436,70.2289692752073,-108.307199612051,12.1591458852677,96.1480537267834, , , , , , , , , , , , , , , , , , , , , , , , , , , , , , , , , , , , , , , , , , , , , , , , , , , , , , , , , , , , ,
74.6211894840176,130.239582530513,55.6183930464953,-36.0281045309413,-25.6108675083152,-62.6653518057852,-14.8822834696474,35.1362712117333,68.2007796738914,-102.430386007266,9.50139821876109,92.9289877885041, , , , , , , , , , , , , , , , , , , , , , , , , , , , , , , , , , , , , , , , , , , , , , , , , , , , , , , , , , , , ,
67.5179552422574,123.763192022992,56.2452367807347,-30.5377925090062,-23.9560490877442,-64.0115299950227,-17.1854317452161,30.6840468207737,64.9806658299828,-95.6405736326251,5.63635923076125,90.0042144018635, , , , , , , , , , , , , , , , , , , , , , , , , , , , , , , , , , , , , , , , , , , , , , , , , , , , , , , , , , , , ,
59.223151659818,116.848090033346,57.6249383735276,-24.2805432758513,-22.0133469165159,-64.8980109827819,-19.4921914730891,26.84892930321,61.2505590674042,-88.0356208465822,0.799106643145102,87.2365142034367, , , , , , , , , , , , , , , , , , , , , , , , , , , , , , , , , , , , , , , , , , , , , , , , , , , , , , , , , , , , ,
49.7491574685031,109.381807980884,59.6326505123805,-17.5054652334865,-19.8455841217803,-66.1707101125985,-22.047436303239,22.8790000422384,56.9600115241624,-79.5654827246937,-4.94174652193878,84.5072292466321, , , , , , , , , , , , , , , , , , , , , , , , , , , , , , , , , , , , , , , , , , , , , , , , , , , , , , , , , , , , ,
39.0816164283175,101.502888673783,62.4212722454655,-10.2788876622282,-17.5186707756223,-67.2604314526748,-24.6895822502249,18.547817275569,51.9183116072557,-70.2922525510507,-11.6698279085741,81.9620804596244, , , , , , , , , , , , , , , , , , , , , , , , , , , , , , , , , , , , , , , , , , , , , , , , , , , , , , , , , , , , ,
27.7768654334034,93.0785837690145,65.301718335611,-2.68759559612647,-15.0975716852186,-68.6902048749931,-27.5883808592322,13.386512768204,45.4748105731929,-60.4277246012092,-18.7624264511039,79.1901510523127, , , , , , , , , , , , , , , , , , , , , , , , , , , , , , , , , , , , , , , , , , , , , , , , , , , , , , , , , , , , ,
15.9132579996451,84.1861424547633,68.272884455118,5.04226384724436,-12.6427815648967,-70.3824389964725,-31.6691213964942,8.34738565270421,38.7151100613917,-50.0497002272045,-26.1798132277365,76.2295134549407, , , , , , , , , , , , , , , , , , , , , , , , , , , , , , , , , , , , , , , , , , , , , , , , , , , , , , , , , , , , ,
3.71989005205444,74.7989579569,71.0790679048455,12.7665380318242,-10.2074996358309,-72.2750422154723,-35.3698352701792,2.53990130296754,31.8013163337373,-39.2594240044776,-33.6795889263956,72.9390129308728, , , , , , , , , , , , , , , , , , , , , , , , , , , , , , , , , , , , , , , , , , , , , , , , , , , , , , , , , , , , ,
-8.41320367318031,64.760421178731,73.1736248519112,20.1255158310246,-7.83562791547494,-74.624691233311,-39.2317189948514,-3.31834940421975,24.2796743729584,-28.1736087527757,-40.7934142625458,68.9670230153211, , , , , , , , , , , , , , , , , , , , , , , , , , , , , , , , , , , , , , , , , , , , , , , , , , , , , , , , , , , , ,
-20.2507906077132,53.9009922758731,74.1517828835862,27.1929749358635,-5.56066004040431,-77.1951683423796,-44.4060422434917,-9.1380413560194,16.6517368656074,-16.8251008340803,-47.2012867456498,64.0263875797296, , , , , , , , , , , , , , , , , , , , , , , , , , , , , , , , , , , , , , , , , , , , , , , , , , , , , , , , , , , , ,
-31.7060105694382,42.6735508309405,74.3795614003786,33.7898817967263,-3.40548154271682,-80.090202749612,-48.9210658692206,-15.0912147444061,8.86635852344318,-5.48377013075147,-53.0427859849085,58.5265561156595, , , , , , , , , , , , , , , , , , , , , , , , , , , , , , , , , , , , , , , , , , , , , , , , , , , , , , , , , , , , ,
-42.2418104341471,31.8824851486411,74.1242955827881,39.7933328790022,-1.38305797161399,-83.3423148324634,-53.6790647818907,-21.4115580142623,0.715712833399358,5.17966264275269,-58.1830530084677,53.0033903657146, , , , , , , , , , , , , , , , , , , , , , , , , , , , , , , , , , , , , , , , , , , , , , , , , , , , , , , , , , , , ,
-51.7614954044707,20.9027873751284,72.664282779599,45.3028650826404,0.502077460595594,-86.7756541400838,-59.4741879857711,-27.9561679194785,-7.88112661565113,15.4293540146708,-62.2128890920349,46.7835350773637, , , , , , , , , , , , , , , , , , , , , , , , , , , , , , , , , , , , , , , , , , , , , , , , , , , , , , , , , , , , ,
-60.1809221578596,9.94023571690735,70.1211578747668,50.2043502566299,2.25172005592562,-90.560201986031,-64.5994963728736,-34.2754929863906,-15.414605586479,25.1203432204758,-65.1510400163133,40.0306967958371, , , , , , , , , , , , , , , , , , , , , , , , , , , , , , , , , , , , , , , , , , , , , , , , , , , , , , , , , , , , ,
-67.4604571439674,-0.856523024050716,66.6039341199166,54.5106138535384,3.87156254934126,-94.3129252501635,-70.2198228729257,-40.0388984306897,-22.5400299311132,34.1584900840087,-67.032195631942,32.8737055479329, , , , , , , , , , , , , , , , , , , , , , , , , , , , , , , , , , , , , , , , , , , , , , , , , , , , , , , , , , , , ,
-73.5148277851154,-11.3629760341196,62.1518517509956,57.6539535891953,5.36880319466278,-98.2994188016945,-75.6879328823261,-46.2263719431437,-29.2401251833848,42.4389019096171,-67.8333397680556,25.394437858438, , , , , , , , , , , , , , , , , , , , , , , , , , , , , , , , , , , , , , , , , , , , , , , , , , , , , , , , , , , , ,
-78.4111497724781,-21.4995587678778,56.9115910046001,60.8966914908674,6.75017130270792,-102.12049809988,-80.8838534172549,-51.5512935134549,-35.7244327733856,49.9553542701776,-67.6613703885392,17.7060161183612, , , , , , , , , , , , , , , , , , , , , , , , , , , , , , , , , , , , , , , , , , , , , , , , , , , , , , , , , , , , ,
-82.3294768843594,-32.0391615821721,50.2903153021872,63.6980052450072,8.02067219616603,-105.956395541832,-86.1287828820217,-56.6648160670304,-41.3936270870451,57.1843192332654,-66.3098960932734,9.12557686000756, , , , , , , , , , , , , , , , , , , , , , , , , , , , , , , , , , , , , , , , , , , , , , , , , , , , , , , , , , , , ,
-85.1764072041568,-41.2112313888715,43.9651758152852,65.690633844501,9.18319908777546,-109.614097522846,-91.054023539187,-61.486370881033,-47.0290929122416,63.1938192965138,-64.570791509721,1.37697221320687, , , , , , , , , , , , , , , , , , , , , , , , , , , , , , , , , , , , , , , , , , , , , , , , , , , , , , , , , , , , ,
