-95.480468946499,-75.0219624271303,20.4585065193689,-25.1006446918926,-55.4881372574201,-133.305981164452,-178.685545188776,-165.958308924893,-116.702403783849,85.2512156868139,-57.9694877329338,-27.2817279538803,471,471,475,472,473,471,471,573,471,471,475,471,655,599,605,535,476,503,503,503,505,505,632,640,775,764,784,692,767,771,773,774,768,698,775,759,1014,1030,1084,926,1035,1026,1023,1015,1016,888,1015,1121,828,828,826,829,829,828,828,889,828,828,826,828,
-95.480468946499,-75.0219624271303,20.4585065193689,-25.1006446918926,-55.4881372574201,-133.305981164452,-178.685545188776,-165.958308924893,-116.702403783849,85.2512156868139,-57.9694877329338,-27.2817279538803,1264,1264,1263,1266,1266,1264,1264,1371,1264,1264,1263,1264,666,642,637,599,529,633,663,664,665,528,672,657,797,796,833,710,825,790,794,796,797,796,798,796,1097,1097,1182,1022,1138,1107,1100,1099,1102,1097,1097,1153,1621,1621,1620,1623,1622,1621,1621,1681,1621,1621,1620,1621,
-95.480468946499,-75.0219624271303,20.4585065193689,-25.1006446918926,-55.4881372574201,-133.305981164452,-178.685545188776,-165.958308924893,-116.702403783849,85.2512156868139,-57.9694877329338,-27.2817279538803,2063,2063,2062,2064,2064,2063,2063,2123,2063,2063,2062,2063,698,660,672,634,734,730,698,698,700,559,699,714,827,827,888,734,851,827,826,826,828,827,828,826,1161,1167,1224,1114,1184,1175,1163,1159,1157,1180,1158,1172,2425,2425,2423,2426,2426,2425,2425,2485,2425,2425,2423,2425,
-95.480468946499,-75.0219624271303,20.4585065193689,-25.1006446918926,-55.4881372574201,-133.305981164452,-178.685545188776,-165.958308924893,-116.702403783849,85.2512156868139,-57.9694877329338,-27.2817279538803,2867,2867,2865,2868,2868,2866,2867,2926,2866,2867,2865,2866,1443,698,1372,1424,1264,1424,1455,1457,1298,668,1560,1394,895,919,980,773,874,853,854,856,892,860,892,952,1807,1823,1799,1967,1835,1821,1818,1809,1809,1711,1914,1907,3229,3229,3227,3230,3230,3228,3229,3288,3228,3229,3227,3228,
-95.480468946499,-75.0219624271303,20.4585065193689,-25.1006446918926,-55.4881372574201,-133.305981164452,-178.685545188776,-165.958308924893,-116.702403783849,85.2512156868139,-57.9694877329338,-27.2817279538803,3673,3673,3672,3674,3674,3672,3673,3775,3672,3673,3672,3672,1459,1392,1434,1464,1458,1523,1523,1523,1458,1360,1568,1436,978,943,998,822,928,951,948,949,956,880,959,1552,1893,1905,1892,2061,1934,1896,1895,1894,1894,1923,1997,1950,4037,4037,4036,4038,4038,4037,4037,4098,4037,4037,4036,4037,
-95.480468946499,-75.0219624271303,20.4585065193689,-25.1006446918926,-55.4881372574201,-133.305981164452,-178.685545188776,-165.958308924893,-116.702403783849,85.2512156868139,-57.9694877329338,-27.2817279538803,4482,4482,4482,4484,4484,4482,4482,4542,4482,4482,4482,4482,1491,1433,1470,1491,2063,2064,2234,2262,1493,1410,1598,1493,1568,1555,1547,891,955,1564,1567,1567,1562,1521,1656,1587,1954,1961,1982,2605,1976,1968,1956,1953,1951,2003,2055,1984,4848,4848,4847,4850,4849,4848,4848,4907,4848,4848,4847,4848,
-95.480468946499,-75.0219624271303,20.4585065193689,-25.1006446918926,-55.4881372574201,-133.305981164452,-178.685545188776,-165.958308924893,-116.702403783849,85.2512156868139,-57.9694877329338,-27.2817279538803,5288,5288,5287,5290,5289,5288,5288,5372,5288,5288,5287,5288,2249,1455,2174,2222,2257,2322,2321,2323,2261,1459,2187,2198,1591,1587,1625,926,1559,1578,1587,1589,1591,1619,1671,1621,2605,2622,2692,2687,2642,2622,2614,2616,2607,2487,2602,2712,5648,5648,5647,5650,5649,5648,5648,5705,5648,5648,5647,5648,
-95.480468946499,-96.2020150808272,-0.721546134327919,-25.1006446918926,-55.4881372574201,-133.305981164452,-178.685545188776,-165.958308924893,-116.702403783849,95.8412420136623,-47.3794614060854,-48.4617806075772,6086,6086,6084,6087,6086,6086,6086,6143,6086,6086,6084,6086,2264,1491,2210,2266,2866,2867,3061,3063,2323,2079,2218,2237,1621,1620,1680,1557,1572,1620,1619,1619,1621,1650,1727,1750,2694,2707,2765,2769,2735,2703,2699,2701,2701,2699,2693,2743,6444,6444,6442,6444,6444,6443,6444,6501,6443,6444,6442,6443,
-95.480468946499,-132.46485628106,-36.9843873345612,-25.1006446918926,-55.4881372574201,-133.305981164452,-178.685545188776,-165.958308924893,-116.702403783849,113.972662613779,-29.2480408059688,-84.7246218078104,6870,6870,6868,6870,6870,6869,6870,6932,6869,6870,6868,6869,2289,2223,2235,2289,3092,3093,3093,3127,3065,2206,2254,2291,1688,1711,1770,1576,1619,1646,1647,1649,1683,1704,1789,2357,2757,2767,2806,3410,2781,2775,2764,2761,2756,2802,2755,2775,7216,7216,7214,7215,7217,7215,7216,7282,7215,7216,7214,7215,
-95.480468946499,-145.903947211869,-50.4234782653701,-25.1006446918926,-55.4881372574201,-136.779153614598,-178.685545188776,-165.958308924893,-116.702403783849,120.692208079183,-22.5284953405644,-98.1637127386193,7636,7636,7634,7636,7637,7636,7636,7726,7636,7636,7634,7636,3053,2237,2318,3027,3800,3673,3870,3972,3095,2867,3013,3003,1761,1793,1799,1600,1644,1743,1741,1742,1752,2295,1853,2392,3409,3429,3405,3502,3447,3426,3419,3417,3412,3576,3405,3533,7976,7976,7974,7977,7977,7976,7976,8046,7976,7976,7974,7976,
-95.480468946499,-161.358611656972,-65.8781427104727,-25.1006446918926,-55.4881372574201,-135.838163898895,-178.685545188776,-165.958308924893,-116.702403783849,128.419540301735,-14.801163118013,-113.618377183722,8398,8398,8397,8400,8400,8398,8398,8494,8398,8398,8397,8398,3068,2290,2983,3073,3827,3899,3931,4034,3832,3026,3057,3041,2366,2365,2375,1639,1667,2367,2370,2373,2366,2395,2372,2423,3503,3510,3495,3574,3545,3507,3503,3501,3499,3672,3497,3546,8741,8741,8740,8743,8743,8741,8741,8802,8741,8741,8740,8741,
-95.480468946499,-186.945605652525,-91.4651367060262,-25.1006446918926,-55.4881372574201,-133.305981164452,-178.685545188776,-165.958308924893,-116.702403783849,141.213037299511,-2.00766612023632,-139.205371179275,9168,9168,9166,9172,9171,9168,9168,9240,9168,9168,9166,9168,3093,2995,3013,3094,3867,4483,4652,4638,3870,3833,3864,3127,2395,2394,2429,1688,1720,2385,2390,2394,2394,2424,2395,2552,3564,3569,3601,4216,3586,3579,3568,3562,3560,4103,3562,3584,9516,9516,9513,9520,9519,9516,9516, ,9516,9516,9513,9516,
-95.480468946499,-190.523817415488,-95.0433484689892,-25.1006446918926,-55.4881372574201,-133.305981164452,-178.685545188776,-165.958308924893,-122.74647554257,143.002143180993,-0.218560238754819,-142.783582942238,9998,9998,9998,9998,9998,9998,9998, ,9998,9998,9998,9998,3860,3041,3038,3818,4610,4709,4679,4684,3931,3873,3875,3809,2424,2424,2484,1864,1749,2424,2423,2425,2425,2487,2425,3167,4215,4242,4222,4305,4249,4242,4236,4328,4224,4312,4222,4352, , , , , , , , , , , , ,
-95.480468946499,-201.28959403317,-105.80912508667,-25.1006446918926,-55.4881372574201,-133.305981164452,-178.685545188776,-165.958308924893,-126.925815156551,148.385031489834,5.16432807008579,-153.54935955992, , , , , , , , , , , , ,3873,3063,3121,3827,4644,5289,5481,4737,4642,3900,3906,3847,2492,2513,2580,2361,2363,2450,2451,2455,2485,3099,2488,3194,4310,4316,4307,4380,4347,4320,4313,4412,4309,4412,4309,4362, , , , , , , , , , , , ,
-95.480468946499,-212.964775982135,-117.484307035635,-25.1006446918926,-55.4881372574201,-133.305981164452,-178.685545188776,-165.958308924893,-130.831188164569,154.222622464316,11.0019190445683,-165.224541508885, , , , , , , , , , , , ,3899,3094,3807,3868,4677,5515,5517,5436,4687,4642,4606,3933,2566,2542,2611,2382,2380,2551,2551,2552,2585,3197,2552,3227,4372,4375,4386,5025,4396,4387,4373,4471,4366,4899,4371,4389, , , , , , , , , , , , ,
-95.480468946499,-206.286863461523,-110.806394515024,-25.1006446918926,-55.4881372574201,-133.305981164452,-178.685545188776,-165.958308924893,-129.843696579536,150.88366620401,7.66296278426249,-158.546628988273, , , , , , , , , , , , ,4669,3801,3845,4629,5288,6087,6288,5482,4741,4685,4636,4621,3175,3167,3156,2404,2422,3172,3174,3174,3169,3228,3177,3352,5025,5058,5030,5115,5066,5049,5012,5038,5032,5127,5021,5181, , , , , , , , , , , , ,
-95.480468946499,-196.55642109939,-101.075952152891,-25.1006446918926,-55.4881372574201,-133.305981164452,-178.685545188776,-165.958308924893,-130.120306527023,146.018445022944,2.79774160319607,-148.81618662614, , , , , , , , , , , , ,4686,3847,3874,4640,5482,6313,6345,5535,5448,4709,4673,4661,3198,3196,3232,2442,2448,3190,3195,3196,3198,3298,3199,3973,5125,5130,5114,5221,5161,5128,5095,5124,5124,5221,5122,5190, , , , , , , , , , , , ,
-95.480468946499,-182.899979609384,-87.4195106628844,-25.1006446918926,-55.4881372574201,-133.305981164452,-178.685545188776,-165.958308924893,-122.221422750955,139.190224277941,-4.03047914180721,-135.159745136134, , , , , , , , , , , , ,4709,3871,4630,4677,6085,6870,6998,6239,5485,5295,5437,4743,3228,3228,3287,2492,2470,3227,3227,3227,3229,3498,3229,4003,5183,5188,5217,6003,5206,5199,5158,5181,5178,5996,5182,5199, , , , , , , , , , , , ,
-95.480468946499,-165.627207814804,-70.1467388683044,-25.1006446918926,-55.4881372574201,-133.305981164452,-178.685545188776,-165.958308924893,-116.702403783849,130.553838380651,-12.6668650390972,-117.886973341554, , , , , , , , , , , , ,5432,3900,4659,5448,6311,6928,7028,6279,5515,5447,5503,5417,3296,3318,3384,2582,2525,3254,3255,3256,3293,3908,3293,4035,5801,5854,5734,6085,5876,5850,5836,5830,5832,6085,5819,5975, , , , , , , , , , , , ,
-95.480468946499,-163.00576600587,-67.5252970593708,-15.1109025519597,-55.4881372574201,-133.305981164452,-178.685545188776,-165.958308924893,-116.702403783849,129.243117476184,-13.977585943564,-115.26553153262, , , , , , , , , , , , ,5458,4642,4737,5492,6869,6968,7129,6306,6284,6158,6207,5459,3367,3401,3988,3166,2554,3353,3353,3353,3369,4005,3357,4164,5890,5933,5827,6790,5965,5927,5924,5924,5924,6505,5916,5991, , , , , , , , , , , , ,
-95.480468946499,-145.840889422077,-50.3604204755774,-2.93735932860016,-55.4881372574201,-133.305981164452,-178.685545188776,-165.958308924893,-116.702403783849,120.660679184287,-22.5600242354607,-98.1006549488267, , , , , , , , , , , , ,5485,4660,5346,5515,6930,7637,7813,6996,6313,6197,6238,5516,3984,3971,4041,3186,3168,3980,3982,4084,3976,4036,3985,4781,5953,5990,5930,6857,6009,5996,5987,5983,5978,6714,5981,6000, , , , , , , , , , , , ,
-95.480468946499,-143.878233358538,-48.3977644120387,4.02377925535843,-55.4881372574201,-133.305981164452,-178.685545188776,-165.958308924893,-116.702403783849,119.679351152518,-23.5413522672301,-96.1379988852879, , , , , , , , , , , , ,6296,4683,5372,6246,7031,7760,7863,7054,6901,6281,6274,6218,3984,4004,4097,3209,3184,3998,4003,4106,4004,4103,4007,4815,6661,6650,6771,7551,6663,6650,6661,6626,6629,6793,6622,6760, , , , , , , , , , , , ,
-95.480468946499,-113.592894678727,-18.1124257322279,15.195644874425,-55.4881372574201,-133.305981164452,-178.685545188776,-165.958308924893,-116.702403783849,104.536681812612,-38.6840216071354,-65.8526602054772, , , , , , , , , , , , ,6312,4741,5418,6287,7635,7863,8577,7127,7055,6934,6964,6257,4037,4036,4176,3247,3226,4036,4035,4136,4035,4718,4037,4847,6743,6716,6867,7634,6755,6724,6747,6715,6717,7285,6710,6779, , , , , , , , , , , , ,
-95.480468946499,-83.4681198552458,12.0123490912534,19.1001583087333,4.24783012528593,-133.305981164452,-178.685545188776,-165.958308924893,-116.702403783849,89.4742944008717,-53.7464090188761,-35.7278853819958, , , , , , , , , , , , ,6345,5416,6212,6313,7692,8399,8657,7790,7096,6977,6991,6345,4103,4127,4216,3297,3252,4062,4063,4165,4100,4817,4100,4968,6802,6784,7467,8243,6798,6789,6809,6774,6769,7488,6770,6796, , , , , , , , , , , , ,
-95.480468946499,-75.0219624271303,20.4585065193689,19.2892887996578,68.2633049735312,-47.7939204302774,-178.685545188776,-165.958308924893,-116.702403783849,85.2512156868139,-57.9694877329338,-27.2817279538803, , , , , , , , , , , , ,7042,5460,6251,6997,7797,8470,9348,7813,7814,7033,7031,6966,4177,4188,4776,3370,3274,4160,4157,4259,4205,4848,4163,5583,7391,7425,7574,8909,7425,7416,7413,7411,7412,7577,7347,7513, , , , , , , , , , , , ,
-95.480468946499,-75.0219624271303,20.4585065193689,23.1222760042629,122.254341265462,58.6322899781403,-56.6146407167468,-165.958308924893,-116.702403783849,85.2512156868139,-57.9694877329338,-27.2817279538803, , , , , , , , , , , , ,7053,5483,6343,7059,8399,8497,9427,7857,7895,7764,7794,7029,4795,4780,4851,3973,3329,4791,4763,4794,4789,4881,4796,5615,7489,7488,8145,9010,7524,7493,7487,7485,7489,8319,7425,7542, , , , , , , , , , , , ,
-95.480468946499,-75.0219624271303,20.4585065193689,18.0898818547623,190.521503272126,173.324347348638,102.538852939062,-82.6619685980938,-116.702403783849,85.2512156868139,-57.9694877329338,-27.2817279538803, , , , , , , , , , , , ,7097,5515,6964,7096,8473,9322, ,8526,8526,7812,7820,7052,4818,4817,4906,3991,3356,4811,4784,4816,4818,4899,4818,5646,7544,7549,8232,9105,7568,7560,7550,7544,7539,8397,7478,7554, , , , , , , , , , , , ,
-95.480468946499,-75.0219624271303,20.4585065193689,15.898880123681,258.806035493452,295.780655956168,275.559490931297,69.0670210520778,-116.702403783849,85.2512156868139,-57.9694877329338,-27.2817279538803, , , , , , , , , , , , ,7796,6214,6999,7764,8561,9427, ,8578,8579,7831,7893,7097,4848,4847,5030,4017,3976,4847,4816,4847,4848,5519,4849,5777,8142,8175,8341,9683,8186,8172,8171,8163,8159,8909,8145,8246, , , , , , , , , , , , ,
-94.4497372128882,-30.7873501347961,63.6623870780923,5.97306758816163,318.245876352878,425.244421874434,461.344439539835,233.152999413903,-48.5231667789471,62.6185436738414,-79.0560621454901,16.4375184716485, , , , , , , , , , , , ,7815,6257,7028,7823,9172, , ,8657,8657,8462,8581,7747,4916,4937,5491,4055,3992,4873,4844,4876,4913,5617,4912,6382,8248,8250,9077,9781,8282,8251,8249,8249,8249,9012,8236,8308, , , , , , , , , , , , ,
-18.1394335736745,40.3653739532267,58.5048075269015,-4.52907594658475,379.658092661163,560.689992788356,658.291225466043,408.155603404457,52.0282588117289,-11.1129701897769,-38.3221205502879,49.4350907400645, , , , , , , , , , , , ,7863,6274,7063,7863,9225, , , ,9354,8481,8585,7791,4982,4981,5512,4104,4035,4973,4939,5021,4984,5647,4977,6413,8307,8316,9165,9879,8327,8321,8308,8305,8302,9105,8304,8324, , , , , , , , , , , , ,
61.6153996962907,116.319286219508,54.703886523218,-18.2255202952228,449.11942888346,700.822762619868,864.298116970379,592.176438349335,158.853164633188,-88.9673429579003,3.45575658653642,85.5115863713636, , , , , , , , , , , , ,8572,6313,7730,8526,9270, , , ,9395,8529,8624,7864,5566,5581,5566,4198,4060,5591,5593,5594,5589,5717,5595,6443,8917,8941,9879, ,8951,8939,8936,8925,8925,9839,8908,9021, , , , , , , , , , , , ,
143.8092449732,196.359567669939,52.5503226967394,-25.1006446918926,511.270400127527,844.093448629098,1076.7899802216,782.883181242125,270.646183934215,-170.08440632157,45.6294611382302,124.454945183339, , , , , , , , , , , , ,8583,6966,7789,8587, , , , , ,9232,9350,8517,5588,5616,5701,4785,4083,5611,5614,5616,5618,5920,5598,6568,9009,9015,9930, ,9050,9018,9013,9012,9011,9918,9006,9064, , , , , , , , , , , , ,
245.733394097719,279.536525644232,33.803131546513,-25.1006446918926,580.06278692439,988.726098063799,1292.76896196161,977.554753195952,385.891441650492,-262.634959870976,105.965131275603,156.669828595373, , , , , , , , , , , , ,8625,7029,7829,8625, , , , , ,9243,9355,8556,5619,5647,6388,4803,4137,5647,5646,5646,5648,6314,5649,7139,9075,9084, , ,9098,9087,9076,9074,9070, ,9072,9095, , , , , , , , , , , , ,
381.948275798169,364.673830264572,-17.2744455335965,-25.1006446918926,646.109352981896,1132.7578566466,1508.88756405601,1173.14560142564,502.899646343039,-373.311053031371,199.611360665883,173.699692365488, , , , , , , , , , , , ,9338,7052,8493,9300, , , , , ,9271,9393,8625,5686,5739,6432,4828,4165,5673,5674,5675,5710,6412,5709,7187,9681,9720, , ,9732,9714,9706, ,9692, ,9677,9807, , , , , , , , , , , , ,
505.513462323381,450.390673478001,-55.1227888453801,-25.1006446918926,708.777826362629,1274.08753972558,1721.54018279386,1366.3660461988,619.852402383269,-477.952067900691,280.318125584381,197.633942316311, , , , , , , , , , , , ,9352,7097,8532,9363, , , , , ,9299, ,9289,5756,5767,6500,4865,4788,5773,5820,5815,5780,6443,5774,7215,9786,9791, , ,9814,9785,9782, ,9782, ,9775,9825, , , , , , , , , , , , ,
611.626256868779,535.137583798187,-76.4886730705918,-25.1006446918926,767.508905490143,1410.52952230783,1949.55652093403,1608.87061618624,734.851742401629,-573.381920333484,344.057464969686,229.324455363798, , , , , , , , , , , , ,9395,7756,8557,9399, , , , , , , ,9328,6420,6383,6642,4916,4805,6386,6419,6389,6384,6505,6390,7386,9834,9837, , ,9861,9845,9838, ,9831, ,9832,9842, , , , , , , , , , , , ,
749.496644477848,617.244737140403,-132.251907337446,-25.1006446918926,817.726651539146,1552.24625644457,2167.95611625915,1870.63990770608,852.272463022019,-683.370690809126,440.874275907647,242.496414901479, , , , , , , , , , , , , ,7792,8592, , , , , , , , ,9395,6442,6412,6684,5004,4846,6405,6440,6412,6413,7086,6394,7390, , , , , , , , , , , , , , , , , , , , , , , , ,
823.986983811498,694.980749286186,-129.006234525312,-25.1006446918926,891.237521448359,1761.57216083852,2453.58723035598,2076.8554545193,976.349145297944,-759.483866548842,476.496609168405,282.987257380437, , , , , , , , , , , , , ,7863,9262, , , , , , , , , ,6473,6443,7165,5584,4871,6442,6472,6442,6443,7183,6443,7910, , , , , , , , , , , , , , , , , , , , , , , , ,
942.18307125989,766.619148002571,-175.563923257318,-25.1006446918926,939.962637998243,1930.92350462073,2730.41220666993,2336.702687581,1138.23916855559,-854.401109631231,558.873497258604,295.527612372627, , , , , , , , , , , , , ,8494,9301, , , , , , , , , ,6539,6535,7196,5627,4894,6468,6500,6471,6505,7215,6504,7944, , , , , , , , , , , , , , , , , , , , , , , , ,
1033.62031497358,830.509059312929,-203.111255660653,-33.0228986841435,974.959839268915,2046.21892054994,2898.13875733285,2496.30953833912,1247.62129151709,-932.064687143256,618.365785317118,313.698901826138, , , , , , , , , , , , , ,8557,9325, , , , , , , , , ,6635,6561,7281,5665,4949,6568,6647,6617,6612,7245,6579,7975, , , , , , , , , , , , , , , , , , , , , , , , ,
1100.32120972928,885.146171166815,-215.175038562466,-43.9912833363154,1000.08115123169,2198.66919553444,3014.74691816697,2608.43918520197,1379.83498680935,-992.733690448048,657.748124145874,334.985566302175, , , , , , , , , , , , , ,8578,9361, , , , , , , , , ,7161,7151,7357,5917,4978,7158,7161,7161,7156,7268,7097,8106, , , , , , , , , , , , , , , , , , , , , , , , ,
1184.56657190944,939.184244707653,-245.382327201788,-52.5101303608237,1017.34685691949,2326.21369581362,3172.8726436197,2749.23047464192,1467.19767377481,-1061.87540830855,714.974449555615,346.900958752933, , , , , , , , , , , , , ,8625, , , , , , , , , , ,7182,7184,7386,6381,5587,7158,7182,7184,7185,7847,7117,8679, , , , , , , , , , , , , , , , , , , , , , , , ,
1231.70062533211,983.404195521621,-248.29642981049,-58.4343922550037,1026.0214433058,2417.33138226878,3235.81075750611,2815.6343222943,1565.45167984577,-1107.55241042687,739.9985275713,367.553882855566, , , , , , , , , , , , , ,9264, , , , , , , , , , ,7215,7215,7938,6400,5588,7214,7214,7214,7216,7943,7150,8708, , , , , , , , , , , , , , , , , , , , , , , , ,
1259.10131973355,1004.98454244224,-254.116777291312,-60.2636844882879,1025.41253709269,2453.15816434795,3330.44372991572,2898.17786902201,1625.38308101437,-1132.0429310879,756.609048512432,375.433882575465, , , , , , , , , , , , , ,9328, , , , , , , , , , ,7281,7304,7958,6423,5646,7241,7242,7244,7280,7975,7217,8738, , , , , , , , , , , , , , , , , , , , , , , , ,
1277.85454554606,1024.28171345847,-253.572832087593,-65.6757418492068,1014.88778156988,2486.7673783542,3353.09975707565,2934.96326161716,1687.51337441932,-1151.06812950227,765.713688816828,385.354440685439, , , , , , , , , , , , , ,9349, , , , , , , , , , ,7356,7349,7974,6460,5671,7341,7338,7379,7385,8059,7283,8869, , , , , , , , , , , , , , , , , , , , , , , , ,
1285.93270882909,1029.96428434963,-255.968424479457,-68.4446448709164,993.895739763331,2470.66319498244,3362.07605171347,2933.75157516115,1716.90447750372,-1157.94849658936,770.950566654273,386.997929935087, , , , , , , , , , , , , ,9395, , , , , , , , , , ,7922,7911,7983,6511,5694,7919,7921,7922,7917,8247,7914,9448, , , , , , , , , , , , , , , , , , , , , , , , ,
1280.6002780651,1022.68863630063,-257.911641764462,-76.004355099776,961.990920733302,2437.35241497586,3331.65152900413,2883.01097396615,1743.03389191849,-1151.64445718287,769.255959914779,382.388497268086, , , , , , , , , , , , , , , , , , , , , , , , ,7934,7944,8045,6713,5748,7937,7942,7945,7946,8612,7922,9483, , , , , , , , , , , , , , , , , , , , , , , , ,
1272.01934083271,1003.39070900236,-268.628631830357,-76.1678684615707,918.862612939662,2378.80118529858,3242.17175012271,2853.21182631237,1741.15288379629,-1137.70502491754,770.323986331536,367.381038586001, , , , , , , , , , , , , , , , , , , , , , , , ,7975,7975,8130,7150,5775,7975,7975,7975,7976,8711,7976,9512, , , , , , , , , , , , , , , , , , , , , , , , ,
1251.33527811066,973.25253806537,-278.082740045286,-80.8270315498203,864.366662464659,2304.9132693321,3145.84231331812,2754.33978769149,1711.27795925504,-1112.29390808801,764.709009077971,347.584899010042, , , , , , , , , , , , , , , , , , , , , , , , ,8041,8068,8712,7193,6382,8001,8003,8004,8048,8741,8044,9647, , , , , , , , , , , , , , , , , , , , , , , , ,
1209.71775421977,933.6582253011,-276.059528918672,-87.3396933705092,798.558698884749,2206.56847079873,3037.12307852749,2675.37070270373,1679.19576919624,-1071.68798976044,742.888641569222,328.799348191215, , , , , , , , , , , , , , , , , , , , , , , , ,8044,8147,8747,7231,6396,8104,8098,8144,8108,8809,8104, , , , , , , , , , , , , , , , , , , , , , , , , ,
1169.51736906504,878.614697941979,-290.902671123062,-91.7129903791748,721.726650953254,2087.40113208595,2878.37023132734,2535.74898365101,1628.03364733985,-1024.06603350351,730.210020094051,293.856013409459, , , , , , , , , , , , , , , , , , , , , , , , ,8688,8681,8801,7282,6441,8684,8687,8687,8682,9385,8689, , , , , , , , , , , , , , , , , , , , , , , , , ,
1119.2645112325,824.633249993374,-294.63126123913,-95.5664554040063,634.419774968314,1946.85638471236,2721.26753914377,2403.46385635374,1565.03603019827,-971.94888061294,706.947886235817,265.000994377122, , , , , , , , , , , , , , , , , , , , , , , , ,8711,8710,8910,7460,6466,8703,8707,8709,8711,9483,8711, , , , , , , , , , , , , , , , , , , , , , , , , ,
1049.89176806544,766.596369199777,-283.295398865662,-101.163804134685,537.470960960488,1786.8939127185,2513.14841636984,2232.77764834041,1493.5229733776,-908.244068632609,666.59358346555,241.650485167058, , , , , , , , , , , , , , , , , , , , , , , , ,8741,8740,8976,7913,6489,8740,8740,8740,8742,9514,8742, , , , , , , , , , , , , , , , , , , , , , , , , ,
975.368798496018,705.622873377194,-269.745925118824,-108.410018087238,432.00898846951,1620.45656297064,2314.43594172019,2039.07019100232,1411.47986321565,-840.495835936607,622.557361807421,217.938474129185, , , , , , , , , , , , , , , , , , , , , , , , ,8807,8833,9445,7932,6545,8767,8768,8769,8806,9583,8804, , , , , , , , , , , , , , , , , , , , , , , , , ,
900.323339124173,643.282407564854,-257.040931559319,-117.07222771487,319.457864100747,1430.96972945965,2070.7065913715,1832.46157993533,1330.00067193634,-771.802873344515,578.682135341746,193.120738002768, , , , , , , , , , , , , , , , , , , , , , , , ,8873,8894,9520,7955,6572,8866,8862,8906,8877,9789,8868, , , , , , , , , , , , , , , , , , , , , , , , , ,
819.786587019833,581.015706855394,-238.770880164439,-126.793311072582,201.521370127489,1241.0385483041,1811.24962263226,1618.33198433387,1231.02163967955,-700.401146937614,529.278733592136,171.122413345478, , , , , , , , , , , , , , , , , , , , , , , , ,9461,9450,9574,7994,7153,9457,9460, ,9455, ,9462, , , , , , , , , , , , , , , , , , , , , , , , , ,
729.217547251752,520.099862621275,-209.117684630477,-137.114097347994,80.1521860674531,1029.68630450963,1543.9713189661,1399.72477224026,1132.04984845701,-624.658704936514,469.167615941115,155.491088995399, , , , , , , , , , , , , , , , , , , , , , , , ,9482,9483,9771,8043,7158,9476,9480, ,9484, ,9482, , , , , , , , , , , , , , , , , , , , , , , , , ,
642.643294386714,461.623337748673,-181.019956638041,-147.502218034857,-42.4939669013828,819.764428944823,1272.52720031695,1179.68761254238,1024.221958295,-552.133316067694,411.831625512378,140.301690555316, , , , , , , , , , , , , , , , , , , , , , , , ,9514,9513,9776,8220,7213,9513,9513, ,9515, ,9515, , , , , , , , , , , , , , , , , , , , , , , , , ,
545.871648086604,406.470864051231,-139.400784035373,-157.385018965294,-55.4881372574201,602.666954179804,1000.73445839892,961.234401840091,915.089630873686,-476.171256068918,342.636216060988,133.53504000793, , , , , , , , , , , , , , , , , , , , , , , , ,9580,9604, ,8678,7239,9540,9541, ,9576, ,9578, , , , , , , , , , , , , , , , , , , , , , , , , ,
448.888524255209,354.422614865387,-94.4659093898221,-166.183634806123,-116.901128978272,388.941864644116,732.515740590652,747.303270514804,806.0684344985,-401.655569560299,271.677216822516,129.978352737783, , , , , , , , , , , , , , , , , , , , , , , , ,9648,9692, ,8698,7262,9638,9638, ,9651, ,9644, , , , , , , , , , , , , , , , , , , , , , , , , ,
352.98235733145,304.916575547261,-48.0657817841885,-173.34533272029,-229.909560039577,176.348447322456,471.819509434361,540.708450497335,698.526082058419,-328.949466439356,200.524069557819,128.425396881537, , , , , , , , , , , , , , , , , , , , , , , , , , , ,8721,7317, , , , , , , , , , , , , , , , , , , , , , , , , , , , , , , ,
259.41741968358,263.328333194071,3.9109135104913,-178.371519767708,-335.019090694228,-26.7370025907188,222.517385118417,344.085222733131,593.761726287921,-261.372876438826,127.753253086544,133.619623352282, , , , , , , , , , , , , , , , , , , , , , , , , , , ,8760,7346, , , , , , , , , , , , , , , , , , , , , , , , , , , , , , , ,
160.709154525738,226.467840915894,65.7586863901554,-180.839349049259,-430.141351914672,-219.83517801778,-11.7172696297909,159.829032034548,492.982755152396,-193.588497720817,47.4752340677916,146.113263653025, , , , , , , , , , , , , , , , , , , , , , , , , , , ,8808,7914, , , , , , , , , , , , , , , , , , , , , , , , , , , , , , , ,
75.3816594908406,194.264900787315,118.883241296475,-180.415619582708,-513.440734424936,-394.591646748822,-231.989887478039,-9.96822386758609,397.27968974416,-134.823280139079,-21.7507909028171,156.574071041896, , , , , , , , , , , , , , , , , , , , , , , , , , , ,8896,7915, , , , , , , , , , , , , , , , , , , , , , , , , , , , , , , ,
-6.18005155237456,166.526858132951,172.706909685326,-176.862574887146,-583.405386059577,-548.620809583727,-426.524577022227,-163.580123561069,307.60057732033,-80.1734032902892,-89.4434806188503,169.616883909139, , , , , , , , , , , , , , , , , , , , , , , , , , , ,9456,7973, , , , , , , , , , , , , , , , , , , , , , , , , , , , , , , ,
-79.2425031861906,142.96487811033,222.207381296521,-170.036143162196,-637.808773560364,-680.989022900889,-597.474437545781,-299.700278349426,224.72686648975,-31.8611874620706,-150.724942241356,182.586129703426, , , , , , , , , , , , , , , , , , , , , , , , , , , ,9476,7999, , , , , , , , , , , , , , , , , , , , , , , , , , , , , , , ,
-145.04673567738,123.219944574073,268.266680251453,-159.877976814153,-676.975854539703,-793.038965747855,-747.823097383259,-417.483782750971,143.146354993702,10.9133955516525,-206.656707964417,195.743312412764, , , , , , , , , , , , , , , , , , , , , , , , , , , ,9498,8022, , , , , , , , , , , , , , , , , , , , , , , , , , , , , , , ,
-205.35275757844,106.887812136096,312.240569714537,-146.403206464427,-700.657338726602,-878.004967167983,-884.977709859347,-518.948846650289,75.4652725275356,49.2324727211711,-258.796663646488,209.564190925317, , , , , , , , , , , , , , , , , , , , , , , , , , , ,9537,8077, , , , , , , , , , , , , , , , , , , , , , , , , , , , , , , ,
-261.089418521705,93.5422867488903,354.631705270596,-129.686050441956,-709.03578744883,-943.197547789245,-991.383127388328,-599.466356072906,13.8685613173441,83.7735658864066,-307.86056189615,224.086996009743, , , , , , , , , , , , , , , , , , , , , , , , , , , ,9585,8105, , , , , , , , , , , , , , , , , , , , , , , , , , , , , , , ,
-303.030326897122,82.756244948547,385.786571845669,-109.84532590802,-702.700118845284,-983.885547413159,-1059.39997013883,-669.994691068778,-37.8821722614478,110.137040974287,-344.408449371396,234.271408397109, , , , , , , , , , , , , , , , , , , , , , , , , , , ,9665,8681, , , , , , , , , , , , , , , , , , , , , , , , , , , , , , , ,
-344.001879120498,74.1198332634978,418.121712383996,-87.031566289969,-682.603971021984,-998.537700291248,-1107.24111858661,-719.554692953201,-82.9131392623763,134.941022928499,-381.061795752247,246.120772823747, , , , , , , , , , , , , , , , , , , , , , , , , , , , ,8696, , , , , , , , , , , , , , , , , , , , , , , , , , , , , , , ,
-371.782652838416,67.2553795080785,439.038032346495,-61.416939642728,-650.01210808522,-993.74206870972,-1132.91956635055,-749.584745229163,-128.441136969873,152.263636665168,-405.410342592455,253.146705927287, , , , , , , , , , , , , , , , , , , , , , , , , , , , ,8740, , , , , , , , , , , , , , , , , , , , , , , , , , , , , , , ,
-391.235661211404,61.8286528168074,453.064314028212,-33.1885412891231,-606.439228428398,-969.556246332631,-1134.80462837214,-775.928610911274,-162.25867392048,164.703504197298,-422.149987619808,257.44648342251, , , , , , , , , , , , , , , , , , , , , , , , , , , , ,8766, , , , , , , , , , , , , , , , , , , , , , , , , , , , , , , ,
-406.892919553377,55.7073177006442,462.600237254022,-2.54498251976792,-553.585170043087,-932.753206675835,-1119.71754147512,-793.835674397015,-186.123165585815,175.592800926366,-434.7465784037,259.153777477333, , , , , , , , , , , , , , , , , , , , , , , , , , , , ,8788, , , , , , , , , , , , , , , , , , , , , , , , , , , , , , , ,
-414.573159505885,48.3205063039827,462.893665809868,30.3043501860049,-493.269868878328,-886.964206888994,-1102.82048399207,-798.346375714326,-209.494030537229,183.12632660095,-438.733412657876,255.607086056926, , , , , , , , , , , , , , , , , , , , , , , , , , , , ,8842, , , , , , , , , , , , , , , , , , , , , , , , , , , , , , , ,
-418.03833888296,45.4199300881599,463.45826897112,65.1383059163344,-427.370726367011,-828.215564917875,-1078.31900765064,-784.81968733168,-224.983035301662,186.309204397399,-440.74830392704,254.43909952964, , , , , , , , , , , , , , , , , , , , , , , , , , , , ,8872, , , , , , , , , , , , , , , , , , , , , , , , , , , , , , , ,
-417.584761095133,43.1944998489784,460.779260944112,101.722242869455,-357.764393058255,-758.690627429617,-1041.75280775102,-765.5522072718,-235.655809457288,187.195130623077,-439.182011019622,251.986880396546, , , , , , , , , , , , , , , , , , , , , , , , , , , , ,9458, , , , , , , , , , , , , , , , , , , , , , , , , , , , , , , ,
-414.539094310991,35.131131542385,449.670225853376,139.806430941842,-286.274402139962,-687.17355015974,-989.102138330459,-745.538115929136,-243.707274324628,189.703981384302,-432.104660082183,242.400678697881, , , , , , , , , , , , , , , , , , , , , , , , , , , , ,9458, , , , , , , , , , , , , , , , , , , , , , , , , , , , , , , ,
-418.124519310812,27.432282447256,445.556801758068,179.125270470119,-214.625568680187,-611.878366124085,-937.594645493249,-725.450001468268,-257.176884835879,195.346118431777,-431.84066053444,236.494542102663, , , , , , , , , , , , , , , , , , , , , , , , , , , , ,9516, , , , , , , , , , , , , , , , , , , , , , , , , , , , , , , ,
-415.726125851392,20.1368949726505,435.863020824042,219.397861518244,-144.40559962252,-537.1626630011,-893.567858111968,-700.138927958613,-263.450751196454,197.79461543937,-425.794573337717,227.999957898347, , , , , , , , , , , , , , , , , , , , , , , , , , , , ,9542, , , , , , , , , , , , , , , , , , , , , , , , , , , , , , , ,
-410.521535208267,13.2959944229346,423.817529631202,260.330327913208,-77.0339766767106,-470.282534180219,-840.730373151928,-683.7265884486,-268.51368502574,198.612770392665,-417.169532419734,218.556762027069, , , , , , , , , , , , , , , , , , , , , , , , , , , , ,9565, , , , , , , , , , , , , , , , , , , , , , , , , , , , , , , ,
-415.357213087194,6.96015217173999,422.317365258935,301.620148388735,-55.4881372574201,-402.569179028155,-791.496222062876,-673.828222422714,-280.775469646077,204.198530457726,-418.837289173064,214.638758715338, , , , , , , , , , , , , , , , , , , , , , , , , , , , ,9618, , , , , , , , , , , , , , , , , , , , , , , , , , , , , , , ,
-415.665112508538,1.16823487663142,416.83334738517,342.962555189017,7.2220968683751,-340.512375668233,-749.900297200062,-666.356051279313,-287.008920386161,207.248438815953,-416.249229946854,209.000791130901, , , , , , , , , , , , , , , , , , , , , , , , , , , , ,9647, , , , , , , , , , , , , , , , , , , , , , , , , , , , , , , ,
-414.939799643767,-4.06172469297337,410.878074950794,384.05884530697,74.5820926457986,-285.092470275008,-723.796025501978,-661.840442979795,-294.901029017009,209.50076216837,-412.908937297281,203.408175128911, , , , , , , , , , , , , , , , , , , , , , , , , , , , , , , , , , , , , , , , , , , , , , , , , , , , , , , , , , , , ,
-417.654847295084,-8.73877563142757,408.916071663656,424.626227666545,129.584998146874,-236.962592810801,-702.764857270492,-654.385012836346,-310.911805583231,213.196811463255,-413.28545947937,200.088648016115, , , , , , , , , , , , , , , , , , , , , , , , , , , , , , , , , , , , , , , , , , , , , , , , , , , , , , , , , , , , ,
-421.938128525632,-12.9018525738345,409.036275951797,464.408605541211,180.346604842437,-196.472079739872,-676.032662874852,-646.449990810778,-321.229895149912,217.419990549732,-415.487202238714,198.067211688982, , , , , , , , , , , , , , , , , , , , , , , , , , , , , , , , , , , , , , , , , , , , , , , , , , , , , , , , , , , , ,
-428.909695242429,-16.6189259968798,412.29076924555,505.404459590059,213.754919051497,-163.696702466876,-655.270738778947,-646.25397183435,-333.894499979658,222.764310619654,-420.600232243989,197.835921624335, , , , , , , , , , , , , , , , , , , , , , , , , , , , , , , , , , , , , , , , , , , , , , , , , , , , , , , , , , , , ,
-446.084907365516,-19.9827783629529,426.102129002563,543.008998189495,238.97515722612,-138.473760981942,-640.09899308601,-645.486436393925,-354.848290014352,233.033842864234,-436.09351818404,203.059675319806, , , , , , , , , , , , , , , , , , , , , , , , , , , , , , , , , , , , , , , , , , , , , , , , , , , , , , , , , , , , ,
-462.26685065793,-23.1041722063328,439.162678451598,585.195124793444,257.580132111493,-120.440306845805,-629.96937025083,-647.699484901727,-375.10195660136,242.685511432131,-450.714764554764,208.029253122633, , , , , , , , , , , , , , , , , , , , , , , , , , , , , , , , , , , , , , , , , , , , , , , , , , , , , , , , , , , , ,
-476.516702167334,-26.1034823251322,450.413219842202,620.16721158247,269.988706187988,-109.072866051196,-624.21911658753,-654.529496806546,-390.25707020724,251.310092246232,-463.464961004768,212.154868758535, , , , , , , , , , , , , , , , , , , , , , , , , , , , , , , , , , , , , , , , , , , , , , , , , , , , , , , , , , , , ,
-499.647794958869,-29.1019157421259,470.545879216743,656.325670358586,276.753570543192,-103.727059111987,-622.120996370405,-670.968566504657,-407.501620437501,264.374855350497,-485.096837087806,220.721981737309, , , , , , , , , , , , , , , , , , , , , , , , , , , , , , , , , , , , , , , , , , , , , , , , , , , , , , , , , , , , ,
-523.230326417514,-32.2133136553758,491.017012762139,691.408261058029,278.530413369364,-103.675537214296,-622.928365300211,-688.041377680164,-425.619485891833,277.721820036444,-507.123669589826,229.401849553382, , , , , , , , , , , , , , , , , , , , , , , , , , , , , , , , , , , , , , , , , , , , , , , , , , , , , , , , , , , , ,
-541.741872215575,-35.5373275885587,506.204544627017,722.64287232858,276.045826808985,-108.142767533867,-625.913404885082,-696.47140999633,-441.364714226047,288.639599902066,-523.973208421296,235.333608519229, , , , , , , , , , , , , , , , , , , , , , , , , , , , , , , , , , , , , , , , , , , , , , , , , , , , , , , , , , , , ,
-565.262850002368,-39.1545259671299,526.108324035238,753.668776219147,270.065625433396,-116.335506391838,-630.397341857563,-705.030169624068,-456.637069499341,302.208687984748,-545.685587018803,243.476899034055, , , , , , , , , , , , , , , , , , , , , , , , , , , , , , , , , , , , , , , , , , , , , , , , , , , , , , , , , , , , ,
-585.428761362144,-43.1237007823968,542.305060579747,783.159716840643,261.364942871034,-127.468342232506,-635.772147042913,-713.245816426319,-476.102354516305,314.276231072269,-563.866910970945,249.590679898675, , , , , , , , , , , , , , , , , , , , , , , , , , , , , , , , , , , , , , , , , , , , , , , , , , , , , , , , , , , , ,
-604.324264760721,-47.4813058578828,556.842958902839,812.090364104682,250.700939738787,-140.784390726437,-641.513973563221,-720.72697857729,-496.422558884614,325.902785309301,-580.58361183178,254.680826522478, , , , , , , , , , , , , , , , , , , , , , , , , , , , , , , , , , , , , , , , , , , , , , , , , , , , , , , , , , , , ,
-622.573643722159,-52.2426221636262,570.331021558533,840.667534109665,238.788414077918,-155.571863230352,-647.189308937226,-727.169890276464,-514.888504468737,337.408132942892,-596.452332640346,259.044199697454, , , , , , , , , , , , , , , , , , , , , , , , , , , , , , , , , , , , , , , , , , , , , , , , , , , , , , , , , , , , ,
-647.735291530146,-57.4040062984064,590.33128523174,869.072513110617,226.278274292033,-171.177564614871,-652.455303071296,-732.359596251349,-525.857067851874,352.569648914276,-619.033288380943,266.463639466667, , , , , , , , , , , , , , , , , , , , , , , , , , , , , , , , , , , , , , , , , , , , , , , , , , , , , , , , , , , , ,
-663.827200199714,-62.9455200358027,600.881680163912,897.440826951557,213.738806357038,-187.018298280314,-657.055891845503,-736.166270978723,-535.681542355202,363.386360117758,-632.354440181813,268.968080064055, , , , , , , , , , , , , , , , , , , , , , , , , , , , , , , , , , , , , , , , , , , , , , , , , , , , , , , , , , , , ,
-679.447130456463,-68.833381873775,610.613748582688,925.843310021228,201.639878132608,-202.590749014482,-660.815194434109,-738.537828831942,-549.826324644943,374.140256165118,-645.030439519575,270.890183354457, , , , , , , , , , , , , , , , , , , , , , , , , , , , , , , , , , , , , , , , , , , , , , , , , , , , , , , , , , , , ,
-692.63282979234,-75.0219624271303,617.61086736521,954.270031311505,190.340524539872,-217.479877644677,-663.629345510524,-739.489988041798,-562.135098713172,383.827396109734,-655.121848578775,271.29445246904, , , , , , , , , , , , , , , , , , , , , , , , , , , , , , , , , , , , , , , , , , , , , , , , , , , , , , , , , , , , ,
-704.233980842299,-81.4553434572553,622.778637385044,982.618683888593,180.08059858411,-231.365388363194,-665.457560021407,-739.094835905629,-567.529347715871,392.844662149776,-663.506309113671,270.661646963895, , , , , , , , , , , , , , , , , , , , , , , , , , , , , , , , , , , , , , , , , , , , , , , , , , , , , , , , , , , , ,
-714.232910633479,-88.0686559381686,626.164254695311,1010.68890890768,170.977259556402,-244.025535726495,-666.312899940884,-737.468757554234,-571.687994429738,401.150783285823,-670.198582664395,269.047799378572, , , , , , , , , , , , , , , , , , , , , , , , , , , , , , , , , , , , , , , , , , , , , , , , , , , , , , , , , , , , ,
-722.654575742508,-94.7894496624126,627.865126080095,1038.18368204863,163.026974791009,-255.337464658049,-666.252961369575,-734.760377186391,-574.733111237886,408.722012702459,-675.259850911301,266.537838208842, , , , , , , , , , , , , , , , , , , , , , , , , , , , , , , , , , , , , , , , , , , , , , , , , , , , , , , , , , , , ,
-729.557260032663,-101.539259010283,628.018001022381,1064.71835779245,156.113446655641,-265.273429027322,-665.370555056183,-731.138971550194,-576.800433729529,415.548259521473,-678.787630527522,263.239371006049, , , , , , , , , , , , , , , , , , , , , , , , , , , , , , , , , , , , , , , , , , , , , , , , , , , , , , , , , , , , ,
-735.022929855988,-108.235410741213,626.787519114775,1089.83728761728,150.021458991701,-273.892598068811,-663.784430084669,-726.783692596092,-578.030799626328,421.6291702986,-680.905224485381,259.276054186781, , , , , , , , , , , , , , , , , , , , , , , , , , , , , , , , , , , , , , , , , , , , , , , , , , , , , , , , , , , , ,
-739.147943842406,-114.793059267039,624.354884575368,1113.03716906199,144.456104186912,-281.328677621355,-661.630173821012,-721.873887356336,-578.562449236381,426.970501554722,-681.751414208887,254.780912654165, , , , , , , , , , , , , , , , , , , , , , , , , , , , , , , , , , , , , , , , , , , , , , , , , , , , , , , , , , , , ,
-742.034757187957,-121.127458651285,620.907298536672,1133.79555162846,139.066290645179,-287.77412874332,-659.051555028006,-716.58079673899,-578.524481507112,431.58110791962,-681.471027862315,249.889919942694, , , , , , , , , , , , , , , , , , , , , , , , , , , , , , , , , , , , , , , , , , , , , , , , , , , , , , , , , , , , ,
-743.785153596059,-127.1565361733,616.62861742276,1151.60235197536,133.470965646192,-293.46221006675,-656.192679074023,-711.060895865302,-578.031699971939,435.470844884679,-680.20688550941,244.736040624731, , , , , , , , , , , , , , , , , , , , , , , , , , , , , , , , , , , , , , , , , , , , , , , , , , , , , , , , , , , , ,
-744.495378612077,-132.803832275557,611.69154633652,1165.99191107027,127.286229678556,-298.648281464993,-653.191328073219,-705.451063279852,-577.181004083303,438.649605443816,-678.093462474299,239.443857030482, , , , , , , , , , , , , , , , , , , , , , , , , , , , , , , , , , , , , , , , , , , , , , , , , , , , , , , , , , , , ,
-744.253353634243,-138.001773030063,606.251580604181,1176.57308371413,119.056775177919,-303.591760835208,-650.173759817502,-699.865638967429,-576.049384639423,441.127563332152,-675.252467119212,234.124903787059, , , , , , , , , , , , , , , , , , , , , , , , , , , , , , , , , , , , , , , , , , , , , , , , , , , , , , , , , , , , ,
-743.137953269916,-142.695096292655,600.442856977262,1183.05504804118,110.437363596416,-308.539903686072,-647.251090326108,-694.395293895542,-574.693483093723,442.916524781285,-671.790405123589,228.873880342304, , , , , , , , , , , , , , , , , , , , , , , , , , , , , , , , , , , , , , , , , , , , , , , , , , , , , , , , , , , , ,
-741.220159265064,-146.844170616331,594.375988648733,1185.26690593427,100.527886746138,-313.714284140636,-644.517239083754,-689.107517962375,-573.150585540967,444.032164940697,-667.798073956899,223.765909016202, , , , , , , , , , , , , , , , , , , , , , , , , , , , , , , , , , , , , , , , , , , , , , , , , , , , , , , , , , , , ,
-738.565757440274,-150.427990366866,588.137767073408,1183.16967398625,88.0113794186529,-319.300549580649,-642.048288500374,-684.048439196358,-571.440840869578,444.496873903569,-663.351762256841,218.854888353271, , , , , , , , , , , , , , , , , , , , , , , , , , , , , , , , , , , , , , , , , , , , , , , , , , , , , , , , , , , , ,
-735.239089424615,-153.446758246173,581.792331178443,1176.85989112531,73.4935991198687,-325.441706669953,-639.902995839836,-679.245609808137,-569.570411689451,444.342923835393,-658.515710301529,214.172786466136, , , , , , , , , , , , , , , , , , , , , , , , , , , , , , , , , , , , , , , , , , , , , , , , , , , , , , , , , , , , ,
-731.307206118987,-155.924062971794,575.383143147193,1167.34528837722,57.2419095109129,-332.234887916839,-638.124105198009,-674.711339385858,-567.535188410895,443.615634545389,-653.34517463309,209.7295400877, , , , , , , , , , , , , , , , , , , , , , , , , , , , , , , , , , , , , , , , , , , , , , , , , , , , , , , , , , , , ,
-726.843643825623,-157.908621498459,568.935022327165,1166.22689632145,39.3912362084132,-339.731277245402,-636.740054638331,-670.446126927207,-565.324638334586,442.37613266204,-647.889333076394,205.513200414354, , , , , , , , , , , , , , , , , , , , , , , , , , , , , , , , , , , , , , , , , , , , , , , , , , , , , , , , , , , , ,
-721.931013085213,-159.47536278387,562.455650301343,1149.87710906175,20.155066165104,-347.938663151866,-635.766660713246,-666.441741721371,-562.925344301829,440.703187934541,-642.193331693278,201.490143758737, , , , , , , , , , , , , , , , , , , , , , , , , , , , , , , , , , , , , , , , , , , , , , , , , , , , , , , , , , , , ,
-716.661673956826,-160.725384418245,555.936289538581,1137.91490290795,-0.188780639262518,-356.825942776185,-635.20838050364,-662.683533798995,-560.323819895423,438.693529187535,-636.298981747704,197.605452560168, , , , , , , , , , , , , , , , , , , , , , , , , , , , , , , , , , , , , , , , , , , , , , , , , , , , , , , , , , , , ,
-711.13596141581,-161.784182416578,549.351778999232,1119.96612640234,-20.3944925191305,-366.328821736386,-635.05880582511,-659.151635162969,-557.508266667668,436.460071916194,-630.243870207521,193.783798291327, , , , , , , , , , , , , , , , , , , , , , , , , , , , , , , , , , , , , , , , , , , , , , , , , , , , , , , , , , , , ,
-705.457708792844,-162.797645377286,542.660063415558,1096.56491364995,-41.1200203103257,-376.355958804383,-635.300161469249,-655.820865250947,-554.469065199673,434.127677085064,-624.058886104201,189.931209019136, , , , , , , , , , , , , , , , , , , , , , , , , , , , , , , , , , , , , , , , , , , , , , , , , , , , , , , , , , , , ,
-699.727173853207,-163.925585736932,535.801588116275,1074.91863171726,-61.9990395569349,-386.794911999453,-635.901775996512,-652.659378968401,-551.197970858587,431.826379795069,-617.764380984741,185.938001189672, , , , , , , , , , , , , , , , , , , , , , , , , , , , , , , , , , , , , , , , , , , , , , , , , , , , , , , , , , , , ,
-694.03185214762,-165.332928453165,528.698923694456,1050.23948321822,-82.6685199010385,-397.517450675819,-636.817745128687,-649.62635070819,-547.686197226267,429.682390300392,-611.365387921038,181.682997620646, , , , , , , , , , , , , , , , , , , , , , , , , , , , , , , , , , , , , , , , , , , , , , , , , , , , , , , , , , , , ,
-688.436007725828,-167.178974166337,521.25703355949,1025.28102850807,-102.787435373469,-408.384066357963,-637.984253640592,-646.66920612962,-543.921766436392,427.807490946082,-604.846520642659,177.039029696577, , , , , , , , , , , , , , , , , , , , , , , , , , , , , , , , , , , , , , , , , , , , , , , , , , , , , , , , , , , , ,
-682.970032492069,-169.605358355251,513.364674136819,1001.41489152917,-122.053390052676,-419.247777930192,-639.31719703779,-643.72104660507,-539.886641901748,426.287695423659,-598.167353314444,171.879657890784, , , , , , , , , , , , , , , , , , , , , , , , , , , , , , , , , , , , , , , , , , , , , , , , , , , , , , , , , , , , ,
-677.620951225428,-172.723480793741,504.897470431686,977.052910228209,-140.216393746067,-429.95750911268,-640.710796926486,-640.698936516494,-535.554216494468,425.172216009584,-591.259210828557,166.086994818973, , , , , , , , , , , , , , , , , , , , , , , , , , , , , , , , , , , , , , , , , , , , , , , , , , , , , , , , , , , , ,
-672.325478652104,-176.60235085775,495.723127794354,954.720049774607,-157.08922945,-444.962586470448,-642.037795955227,-637.503621997725,-530.887697355523,424.463914754926,-584.024303223229,159.560388468302, , , , , , , , , , , , , , , , , , , , , , , , , , , , , , , , , , , , , , , , , , , , , , , , , , , , , , , , , , , , ,
-666.966934191393,-181.25799575015,485.708938441243,930.795209792382,-172.553954538066,-456.147502428225,-643.151548754808,-634.02101479506,-525.839794648843,424.112464970771,-576.337936316318,152.225471345547, , , , , , , , , , , , , , , , , , , , , , , , , , , , , , , , , , , , , , , , , , , , , , , , , , , , , , , , , , , , ,
-661.376985485577,-186.645716127604,474.731269357973,907.881424646535,-186.564104920945,-465.49701959282,-643.889964532295,-630.125452693488,-520.353899129651,424.011350806589,-568.054127421775,144.042776615185, , , , , , , , , , , , , , , , , , , , , , , , , , , , , , , , , , , , , , , , , , , , , , , , , , , , , , , , , , , , ,
-655.34266265534,-192.65641567577,462.686246979571,884.804249141928,-199.142242037272,-475.090400425412,-654.974544175185,-625.684442993946,-514.366682407919,423.999539165554,-559.014454817455,135.014915651901, , , , , , , , , , , , , , , , , , , , , , , , , , , , , , , , , , , , , , , , , , , , , , , , , , , , , , , , , , , , ,
-648.618463466789,-199.117931864565,449.500531602224,859.471324391808,-210.372709342504,-482.847978300079,-655.309462476672,-620.56441453514,-507.811853401024,423.868197665676,-549.059497534506,125.19129986883, , , , , , , , , , , , , , , , , , , , , , , , , , , , , , , , , , , , , , , , , , , , , , , , , , , , , , , , , , , , ,
-640.942758127156,-205.801810814579,435.140947312577,833.118844472295,-220.389879722692,-491.468577532004,-653.881495358688,-614.63698301759,-500.624702485633,423.372284470867,-538.041852719867,114.669568249, , , , , , , , , , , , , , , , , , , , , , , , , , , , , , , , , , , , , , , , , , , , , , , , , , , , , , , , , , , , ,
-632.057175660395,-212.435372221843,419.621803438552,806.900358834688,-229.362703578141,-497.499450798251,-660.510552316046,-607.785321906703,-492.747056719558,422.246273941118,-525.839489549474,103.593215608355, , , , , , , , , , , , , , , , , , , , , , , , , , , , , , , , , , , , , , , , , , , , , , , , , , , , , , , , , , , , ,
-621.727278999238,-218.718260115227,403.009018884012,776.989807899087,-237.476870586902,-502.063028569827,-665.93515238024,-599.910342498035,-484.132318366018,420.222769557232,-512.368148941625,92.1453793843928, , , , , , , , , , , , , , , , , , , , , , , , , , , , , , , , , , , , , , , , , , , , , , , , , , , , , , , , , , , , ,
-609.762677186936,-224.342079184195,385.420598002741,743.837543492883,-244.916241543367,-508.672690255403,-666.328391955959,-590.936462044157,-474.750317581946,417.052378185565,-497.591637594838,80.5392594092731, , , , , , , , , , , , , , , , , , , , , , , , , , , , , , , , , , , , , , , , , , , , , , , , , , , , , , , , , , , , ,
-596.034787261732,-229.01132552719,367.023461734542,707.639331975722,-251.845296111665,-511.343591537876,-659.890720949339,-589.495274416463,-464.591724181507,412.52305639446,-481.529124498137,69.0060681036763, , , , , , , , , , , , , , , , , , , , , , , , , , , , , , , , , , , , , , , , , , , , , , , , , , , , , , , , , , , , ,
-580.490666467854,-232.463712688997,348.026953778857,668.646626433317,-258.394147746952,-512.042706108195,-651.972189053332,-578.215596970667,-453.67169586892,406.477189578425,-464.258810123355,57.7816205449304, , , , , , , , , , , , , , , , , , , , , , , , , , , , , , , , , , , , , , , , , , , , , , , , , , , , , , , , , , , , ,
-563.161600454274,-234.488111416307,328.673489037967,625.499552478791,-264.647264598359,-513.949343907089,-642.55002852684,-565.797447308379,-442.03232209829,398.82485593529,-445.917544746121,47.0926888108307, , , , , , , , , , , , , , , , , , , , , , , , , , , , , , , , , , , , , , , , , , , , , , , , , , , , , , , , , , , , ,
-544.165455478269,-234.938565057016,309.226890421254,580.681096979944,-270.636548175739,-513.38838034514,-631.640709331353,-552.298686353352,-429.74335269762,389.552010267642,-426.696172949762,37.1441626821195, , , , , , , , , , , , , , , , , , , , , , , , , , , , , , , , , , , , , , , , , , , , , , , , , , , , , , , , , , , , ,
-523.702252547463,-233.74318193243,289.959070615033,532.707888914122,-276.338989162635,-509.90216850413,-619.299407129973,-537.811865196493,-416.900773340025,378.722717239946,-406.830661581248,28.1079443413019, , , , , , , , , , , , , , , , , , , , , , , , , , , , , , , , , , , , , , , , , , , , , , , , , , , , , , , , , , , , ,
-502.04303861017,-230.907169786223,271.135868823947,484.33517553851,-281.678787178062,-506.419520851402,-605.616846692049,-522.459861500311,-403.62303039073,366.475104198196,-386.589453717059,20.1143495188622, , , , , , , , , , , , , , , , , , , , , , , , , , , , , , , , , , , , , , , , , , , , , , , , , , , , , , , , , , , , ,
-479.512853584983,-226.509865453714,253.002988131269,432.150115123671,-286.533561332139,-502.850017830716,-590.713642203027,-506.389050324041,-390.045060483022,353.011359519347,-366.257920858126,13.2465613387782, , , , , , , , , , , , , , , , , , , , , , , , , , , , , , , , , , , , , , , , , , , , , , , , , , , , , , , , , , , , ,
-456.469277508742,-220.696254202472,235.77302330627,379.592851572483,-290.744048088951,-497.763127578536,-574.732672847709,-489.760639971016,-376.310641382561,338.582765855606,-346.121150407506,7.53838455189954, , , , , , , , , , , , , , , , , , , , , , , , , , , , , , , , , , , , , , , , , , , , , , , , , , , , , , , , , , , , ,
-433.27854517058,-213.664059839616,219.614485330965,327.592401027852,-294.126474625686,-489.561287671947,-557.830359004251,-472.741109309145,-362.563848714754,323.471302505097,-326.446515250773,2.97521274567485, , , , , , , , , , , , , , , , , , , , , , , , , , , , , , , , , , , , , , , , , , , , , , , , , , , , , , , , , , , , ,
-410.291463296474,-205.647926000315,204.643537296159,277.090334659974,-296.486646303738,-479.464339044352,-540.167867953071,-455.492809351188,-348.940524653979,307.969694648394,-307.467500296316,-0.50219435207778, , , , , , , , , , , , , , , , , , , , , , , , , , , , , , , , , , , , , , , , , , , , , , , , , , , , , , , , , , , , ,
-387.821350185382,-196.902440653024,190.918909532358,228.989174973728,-297.634732524177,-469.144654352444,-521.903260582463,-438.16573781529,-335.560639815403,292.361895419202,-289.37012985887,-2.99176556033264, , , , , , , , , , , , , , , , , , , , , , , , , , , , , , , , , , , , , , , , , , , , , , , , , , , , , , , , , , , , ,
-366.125959863642,-187.685743346184,178.440216517458,184.104930942472,-297.399766269837,-456.820532260499,-503.185409056212,-420.89129233909,-322.52228364684,276.905851604912,-272.28308819055,-4.62276341436261, , , , , , , , , , , , , , , , , , , , , , , , , , , , , , , , , , , , , , , , , , , , , , , , , , , , , , , , , , , , ,
-345.394894122313,-178.245190983129,167.149703139184,143.126923684932,-295.642943604222,-444.263743141164,-484.150203306407,-403.778495372874,-309.897783712267,261.82004255272,-256.272298630748,-5.5477439219717, , , , , , , , , , , , , , , , , , , , , , , , , , , , , , , , , , , , , , , , , , , , , , , , , , , , , , , , , , , , ,
-325.743413182681,-168.806091126598,156.937322056083,106.587155575744,-292.268889011276,-432.296574362272,-464.919174994038,-386.912812485686,-297.732172055261,247.274752154639,-241.340367619382,-5.93438453525671, , , , , , , , , , , , , , , , , , , , , , , , , , , , , , , , , , , , , , , , , , , , , , , , , , , , , , , , , , , , ,
-307.212896620236,-159.563957702324,147.648938917912,74.8405656715799,-287.23415399051,-418.736493290731,-445.600278452675,-370.357322742991,-286.043936894981,233.388427161279,-227.430917769074,-5.95750939220569, , , , , , , , , , , , , , , , , , , , , , , , , , , , , , , , , , , , , , , , , , , , , , , , , , , , , , , , , , , , ,
-289.77753061421,-150.680245469904,139.097285144306,48.0566481522358,-280.552381156627,-403.08575030185,-426.290264342313,-354.155716182026,-274.827764800211,220.228888042056,-214.437407879258,-5.79148016279844, , , , , , , , , , , , , , , , , , , , , , , , , , , , , , , , , , , , , , , , , , , , , , , , , , , , , , , , , , , , ,
-273.356165940874,-142.281170274632,131.074995666242,26.222091379139,-272.295817502678,-386.953588778701,-407.077924962902,-338.336444322563,-264.05882203678,207.818668107753,-202.215580803558,-5.60308730419474, , , , , , , , , , , , , , , , , , , , , , , , , , , , , , , , , , , , , , , , , , , , , , , , , , , , , , , , , , , , ,
-257.827798488513,-134.459034336216,123.368764152297,9.15334710272041,-262.593173304002,-370.381249635886,-388.047491856724,-322.91734835895,-253.69805256154,196.143416412364,-190.598281320405,-5.54513509195935, , , , , , , , , , , , , , , , , , , , , , , , , , , , , , , , , , , , , , , , , , , , , , , , , , , , , , , , , , , , ,
-243.048863251001,-127.275422619233,115.773440631768,-3.48257156933716,-251.624136446386,-354.225748468477,-369.281588859744,-307.910195345582,-243.697966869928,185.162142935116,-179.411151941385,-5.75099099373197, , , , , , , , , , , , , , , , , , , , , , , , , , , , , , , , , , , , , , , , , , , , , , , , , , , , , , , , , , , , ,
-228.870536349208,-120.765680238306,108.104856110902,-12.1411609245634,-239.611100691771,-339.377304071671,-350.863326216371,-293.324696827865,-234.008428227944,174.818108293756,-168.487696230055,-6.3304120637019, , , , , , , , , , , , , , , , , , , , , , , , , , , , , , , , , , , , , , , , , , , , , , , , , , , , , , , , , , , , ,
-215.154466277773,-114.944157881095,100.210308396678,-17.3696018757534,-226.8088059841,-324.528709019165,-332.877303824102,-279.171714884792,-224.581986932984,165.049312079433,-157.682387337226,-7.36692474220795, , , , , , , , , , , , , , , , , , , , , , , , , , , , , , , , , , , , , , , , , , , , , , , , , , , , , , , , , , , , ,
-201.785720052326,-109.809757648189,91.9759624041368,-19.7741807517034,-213.492615221945,-309.848803346672,-315.409432149418,-265.465460776488,-215.378368026913,155.797738850257,-146.880841228231,-8.91689762202584, , , , , , , , , , , , , , , , , , , , , , , , , , , , , , , , , , , , , , , , , , , , , , , , , , , , , , , , , , , , ,
-188.682152751266,-105.351328376836,83.3308243744296,-19.9878543992142,-199.946108280464,-295.50309656056,-298.545572421595,-252.224572756703,-206.367798144215,147.01674056405,-136.006488562848,-11.010252001203, , , , , , , , , , , , , , , , , , , , , , , , , , , , , , , , , , , , , , , , , , , , , , , , , , , , , , , , , , , , ,
-175.799847930791,-101.552501070747,74.2473468600435,-18.6395672088653,-186.448627340425,-281.651270117,-282.369078314043,-239.472047341085,-197.532974781878,138.676174500768,-125.023597395417,-13.6525771053515, , , , , , , , , , , , , , , , , , , , , , , , , , , , , , , , , , , , , , , , , , , , , , , , , , , , , , , , , , , , ,
-163.134696642783,-98.3956256386616,64.7390710041217,-16.3266529249531,-173.263401097825,-268.444012734783,-266.957433581771,-227.234113468539,-188.869632717813,130.765161140722,-113.936883823452,-16.8282773172695, , , , , , , , , , , , , , , , , , , , , , , , , , , , , , , , , , , , , , , , , , , , , , , , , , , , , , , , , , , , ,
-150.720513080732,-95.864513750281,54.8559993304516,-13.5914076642932,-160.626894294285,-256.019217076763,-252.378332112973,-215.53827925959,-180.385829313917,123.292513415506,-102.788256205592,-20.5042572099143, , , , , , , , , , , , , , , , , , , , , , , , , , , , , , , , , , , , , , , , , , , , , , , , , , , , , , , , , , , , ,
-138.624257670855,-93.9457092737784,44.6785483970768,-10.9026721950146,-148.740011859279,-244.497740617999,-238.685692716669,-204.410911034445,-172.100220033828,116.284983472316,-91.6514030339658,-24.6335804383504, , , , , , , , , , , , , , , , , , , , , , , , , , , , , , , , , , , , , , , , , , , , , , , , , , , , , , , , , , , , ,
-126.938974374413,-92.6280990217131,34.3108753526999,-8.64297291380947,-137.761676087096,-233.979115187364,-225.91616653535,-193.874765602367,-164.039681938148,109.783536698062,-80.6249248635562,-29.1586118345062, , , , , , , , , , , , , , , , , , , , , , , , , , , , , , , , , , , , , , , , , , , , , , , , , , , , , , , , , , , , ,
-115.775048034015,-91.900917287877,23.8741307461383,-7.10143273858821,-127.805084828906,-223.144780454482,-214.086633776764,-183.946849028906,-156.236635316689,103.837982660945,-69.8245893900766,-34.013393270869, , , , , , , , , , , , , , , , , , , , , , , , , , , , , , , , , , , , , , , , , , , , , , , , , , , , , , , , , , , , ,
-105.250422011778,-91.7505164380135,13.4999055737647,-6.47230698450516,-118.93670519051,-213.320615208099,-203.193024667174,-174.63684385021,-148.726333539639,98.500469224895,-59.3751637927713,-39.125305432124, , , , , , , , , , , , , , , , , , , , , , , , , , , , , , , , , , , , , , , , , , , , , , , , , , , , , , , , , , , , ,
-95.480468946499,-92.1565184166709,3.32395052982833,-6.85867306468345,-111.177836429219,-204.538064696697,-193.210613450536,-165.958308924893,-141.544302240954,93.8184936815842,-49.4022097381636,-44.4162839434209, , , , , , , , , , , , , , , , , , , , , , , , , , , , , , , , , , , , , , , , , , , , , , , , , , , , , , , , , , , , ,
-95.480468946499,-93.0880371233811,2.39243182311811,-8.28053778972554,-104.508422723592,-196.752133244737,-184.095775504967,-165.958308924893,-134.724056234227,94.2842530349393,-48.9364503848085,-45.3478026501311, , , , , , , , , , , , , , , , , , , , , , , , , , , , , , , , , , , , , , , , , , , , , , , , , , , , , , , , , , , , ,
-95.480468946499,-94.5005831825984,0.979885763900857,-10.6864348430471,-98.8726986728958,-189.896411085488,-178.685545188776,-165.958308924893,-128.295199444544,94.9905260645479,-48.2301773551998,-46.7603487093484, , , , , , , , , , , , , , , , , , , , , , , , , , , , , , , , , , , , , , , , , , , , , , , , , , , , , , , , , , , , ,
-95.480468946499,-96.3340961398401,-0.853627193340909,-13.967473153386,-95.1073473216116,-183.88798197812,-178.685545188776,-165.958308924893,-122.281989258467,95.9072825431688,-47.3134208765789,-48.5938616665901, , , , , , , , , , , , , , , , , , , , , , , , , , , , , , , , , , , , , , , , , , , , , , , , , , , , , , , , , , , , ,
-95.480468946499,-98.5123700805621,-3.0319011340629,-17.9727560661694,-92.0971866531859,-178.63287191232,-178.685545188776,-165.958308924893,-116.702403783849,96.9964195135298,-46.2242839062179,-50.7721356073121, , , , , , , , , , , , , , , , , , , , , , , , , , , , , , , , , , , , , , , , , , , , , , , , , , , , , , , , , , , , ,
-95.480468946499,-100.944003514129,-5.46353456763009,-22.5251041102001,-89.7317217628899,-174.031634204692,-178.685545188776,-165.958308924893,-116.702403783849,98.2122362303134,-45.0084671894344,-53.2037690408793, , , , , , , , , , , , , , , , , , , , , , , , , , , , , , , , , , , , , , , , , , , , , , , , , , , , , , , , , , , , ,
-95.480468946499,-103.524903019469,-8.04443407296958,-25.1006446918926,-87.9052155644042,-169.984651576012,-178.685545188776,-165.958308924893,-116.702403783849,99.5026859829831,-43.7180174367646,-55.7846685462188, , , , , , , , , , , , , , , , , , , , , , , , , , , , , , , , , , , , , , , , , , , , , , , , , , , , , , , , , , , , ,
-95.480468946499,-106.14223840599,-10.6617694594911,-25.1006446918926,-86.522919554734,-166.396786488522,-178.685545188776,-165.958308924893,-116.702403783849,100.811353676244,-42.4093497435039,-58.4020039327403, , , , , , , , , , , , , , , , , , , , , , , , , , , , , , , , , , , , , , , , , , , , , , , , , , , , , , , , , , , , ,
-95.480468946499,-108.67956473066,-13.1990957841604,-25.1006446918926,-85.5052401811551,-163.181128777141,-178.685545188776,-165.958308924893,-116.702403783849,102.080016838579,-41.1406865811692,-60.9393302574097, , , , , , , , , , , , , , , , , , , , , , , , , , , , , , , , , , , , , , , , , , , , , , , , , , , , , , , , , , , , ,
-95.480468946499,-111.022663439379,-15.54219449288,-25.1006446918926,-84.7896957491324,-160.261728481948,-178.685545188776,-165.958308924893,-116.702403783849,103.251566192938,-39.9691372268094,-63.2824289661292, , , , , , , , , , , , , , , , , , , , , , , , , , , , , , , , , , , , , , , , , , , , , , , , , , , , , , , , , , , , ,
-95.480468946499,-113.065593156535,-17.5851242100359,-25.1006446918926,-84.3308176919326,-157.575304895093,-178.685545188776,-165.958308924893,-116.702403783849,104.273031051516,-38.9476723682315,-65.3253586832851, , , , , , , , , , , , , , , , , , , , , , , , , , , , , , , , , , , , , , , , , , , , , , , , , , , , , , , , , , , , ,
-95.480468946499,-114.716480913761,-19.2360119672617,-25.1006446918926,-84.098362697615,-155.071970742133,-178.685545188776,-165.958308924893,-116.702403783849,105.098474930129,-38.1222284896186,-66.9762464405109, , , , , , , , , , , , , , , , , , , , , , , , , , , , , , , , , , , , , , , , , , , , , , , , , , , , , , , , , , , , ,
-95.480468946499,-115.902650011282,-20.4221810647826,-25.1006446918926,-84.0742981995542,-152.715027841296,-178.685545188776,-165.958308924893,-116.702403783849,105.69155947889,-37.5291439408581,-68.1624155380319, , , , , , , , , , , , , , , , , , , , , , , , , , , , , , , , , , , , , , , , , , , , , , , , , , , , , , , , , , , , ,
-95.480468946499,-116.574705441635,-21.0942364951362,-25.1006446918926,-84.2490245190411,-150.479911321247,-178.685545188776,-165.958308924893,-116.702403783849,106.027587194066,-37.1931162256813,-68.8344709683855, , , , , , , , , , , , , , , , , , , , , , , , , , , , , , , , , , , , , , , , , , , , , , , , , , , , , , , , , , , , ,
-95.480468946499,-116.709198113081,-21.2287291665815,-25.1006446918926,-84.6172428844191,-148.352392287204,-178.685545188776,-165.958308924893,-116.702403783849,106.094833529789,-37.1258698899587,-68.9689636398307, , , , , , , , , , , , , , , , , , , , , , , , , , , , , , , , , , , , , , , , , , , , , , , , , , , , , , , , , , , , ,
-95.480468946499,-116.309536444576,-20.8290674980767,-25.1006446918926,-85.1738121285778,-146.326179684209,-178.685545188776,-165.958308924893,-116.702403783849,105.895002695537,-37.325700724211,-68.5693019713259, , , , , , , , , , , , , , , , , , , , , , , , , , , , , , , , , , , , , , , , , , , , , , , , , , , , , , , , , , , , ,
-95.480468946499,-115.404955823858,-19.9244868773586,-25.1006446918926,-85.9098944461467,-144.400083067857,-178.685545188776,-165.958308924893,-116.702403783849,105.442712385178,-37.7779910345701,-67.6647213506078, , , , , , , , , , , , , , , , , , , , , , , , , , , , , , , , , , , , , , , , , , , , , , , , , , , , , , , , , , , , ,
-95.480468946499,-114.047578857283,-18.5671099107836,-25.1006446918926,-85.1093081369069,-142.574922888359,-178.685545188776,-165.958308924893,-116.702403783849,104.76402390189,-38.4566795178576,-66.3073443840328, , , , , , , , , , , , , , , , , , , , , , , , , , , , , , , , , , , , , , , , , , , , , , , , , , , , , , , , , , , , ,
-95.480468946499,-112.307837485958,-16.8273685394588,-25.1006446918926,-84.3798497059553,-140.850421592534,-178.685545188776,-165.958308924893,-116.702403783849,103.894153216228,-39.32655020352,-64.5676030127081, , , , , , , , , , , , , , , , , , , , , , , , , , , , , , , , , , , , , , , , , , , , , , , , , , , , , , , , , , , , ,
-95.480468946499,-110.268698885615,-14.7882299391162,-25.1006446918926,-83.7363638597236,-139.222371562683,-178.685545188776,-165.958308924893,-116.702403783849,102.874583916056,-40.3461195036913,-62.5284644123654, , , , , , , , , , , , , , , , , , , , , , , , , , , , , , , , , , , , , , , , , , , , , , , , , , , , , , , , , , , , ,
-95.480468946499,-108.019194262574,-12.5387253160744,-27.1566279400061,-83.189129432299,-137.680420965332,-178.685545188776,-165.958308924893,-116.702403783849,101.749831604536,-41.4708718152122,-60.2789597893237, , , , , , , , , , , , , , , , , , , , , , , , , , , , , , , , , , , , , , , , , , , , , , , , , , , , , , , , , , , , ,
-95.480468946499,-105.647724104693,-10.167255158194,-29.3254211083803,-82.7416498498402,-136.20680338451,-178.685545188776,-165.958308924893,-116.702403783849,100.564096525595,-42.6566068941524,-57.9074896314433, , , , , , , , , , , , , , , , , , , , , , , , , , , , , , , , , , , , , , , , , , , , , , , , , , , , , , , , , , , , ,
-95.480468946499,-103.235587770489,-7.7551188239893,-31.9327648529345,-82.3894575804638,-134.776232808704,-178.685545188776,-165.958308924893,-116.702403783849,99.358028358493,-43.8626750612547,-55.4953532972385, , , , , , , , , , , , , , , , , , , , , , , , , , , , , , , , , , , , , , , , , , , , , , , , , , , , , , , , , , , , ,
-95.480468946499,-100.851219382755,-5.37075043625537,-35.6544453614565,-82.1199887785617,-133.356997044381,-178.685545188776,-165.958308924893,-116.702403783849,98.165844164626,-45.0548592551217,-53.1109849095046, , , , , , , , , , , , , , , , , , , , , , , , , , , , , , , , , , , , , , , , , , , , , , , , , , , , , , , , , , , , ,
-95.480468946499,-98.5456789791382,-3.06521003263893,-39.7232486217619,-81.913421645561,-133.305981164452,-178.685545188776,-165.958308924893,-116.702403783849,97.0130739628178,-46.2076294569299,-50.8054445058882, , , , , , , , , , , , , , , , , , , , , , , , , , , , , , , , , , , , , , , , , , , , , , , , , , , , , , , , , , , , ,
-95.480468946499,-96.349940531347,-0.869471584847812,-44.214856524974,-81.7442463158519,-133.305981164452,-178.685545188776,-165.958308924893,-116.702403783849,95.9152047389223,-47.3054986808255,-48.609706058097, , , , , , , , , , , , , , , , , , , , , , , , , , , , , , , , , , , , , , , , , , , , , , , , , , , , , , , , , , , , ,
-95.480468946499,-94.2743468422132,1.20612210428604,-46.5938976623016,-81.5832861775597,-133.305981164452,-178.685545188776,-165.958308924893,-116.702403783849,94.8774078943553,-48.3432955253924,-46.5341123689632, , , , , , , , , , , , , , , , , , , , , , , , , , , , , , , , , , , , , , , , , , , , , , , , , , , , , , , , , , , , ,
-95.480468946499,-92.3102887644274,3.17018018207182,-51.7013810028918,-81.3999143301429,-133.305981164452,-178.685545188776,-165.958308924893,-116.702403783849,93.8953788554624,-49.3253245642853,-44.5700542911774, , , , , , , , , , , , , , , , , , , , , , , , , , , , , , , , , , , , , , , , , , , , , , , , , , , , , , , , , , , , ,
-95.480468946499,-90.4338255122876,5.04664343421166,-54.8819144109461,-81.1642670850739,-133.305981164452,-178.685545188776,-165.958308924893,-116.702403783849,92.9571472293925,-50.2635561903552,-42.6935910390376, , , , , , , , , , , , , , , , , , , , , , , , , , , , , , , , , , , , , , , , , , , , , , , , , , , , , , , , , , , , ,
-95.480468946499,-88.6106966132462,6.869772333253,-59.8815728025155,-80.8493170094804,-133.305981164452,-178.685545188776,-165.958308924893,-116.702403783849,92.0455827798719,-51.1751206398759,-40.8704621399962, , , , , , , , , , , , , , , , , , , , , , , , , , , , , , , , , , , , , , , , , , , , , , , , , , , , , , , , , , , , ,
-95.480468946499,-86.8020302556233,8.67843869087591,-63.4164039068399,-80.4327144065633,-133.305981164452,-178.685545188776,-165.958308924893,-116.702403783849,91.1412496010604,-52.0794538186874,-39.0617957823733, , , , , , , , , , , , , , , , , , , , , , , , , , , , , , , , , , , , , , , , , , , , , , , , , , , , , , , , , , , , ,
-95.480468946499,-84.9700355567478,10.5104333897514,-68.384928885093,-79.8983281075979,-133.305981164452,-178.685545188776,-165.958308924893,-116.702403783849,90.2252522516226,-52.9954511681251,-37.2298010834978, , , , , , , , , , , , , , , , , , , , , , , , , , , , , , , , , , , , , , , , , , , , , , , , , , , , , , , , , , , , ,
-95.480468946499,-83.0830609405673,12.3974080059319,-74.5596360073026,-79.2374112730149,-133.305981164452,-178.685545188776,-165.958308924893,-116.702403783849,89.2817649435324,-53.9389384762154,-35.3428264673173, , , , , , , , , , , , , , , , , , , , , , , , , , , , , , , , , , , , , , , , , , , , , , , , , , , , , , , , , , , , ,
-95.480468946499,-81.1195637530046,14.3609051934946,-76.7963170633255,-78.4492988062717,-133.305981164452,-178.685545188776,-165.958308924893,-116.702403783849,88.300016349751,-54.9206870699967,-33.3793292797546, , , , , , , , , , , , , , , , , , , , , , , , , , , , , , , , , , , , , , , , , , , , , , , , , , , , , , , , , , , , ,
-95.480468946499,-79.0707131671238,16.4097557793755,-79.6972749113889,-77.5415371842461,-133.305981164452,-178.685545188776,-165.958308924893,-116.702403783849,87.2755910568106,-55.9451123629371,-31.3304786938738, , , , , , , , , , , , , , , , , , , , , , , , , , , , , , , , , , , , , , , , , , , , , , , , , , , , , , , , , , , , ,
-89.5359053803251,-76.9415035635731,12.5944018167523,-84.7993142363162,-76.5293799311948,-133.305981164452,-178.685545188776,-165.958308924893,-116.702403783849,83.2387044719484,-51.0651535985386,-32.17355087341, , , , , , , , , , , , , , , , , , , , , , , , , , , , , , , , , , , , , , , , , , , , , , , , , , , , , , , , , , , , ,
-86.0844091608643,-75.0219624271303,11.0624467337342,-87.9473599269397,-75.4346547101719,-133.305981164452,-178.685545188776,-165.958308924893,-116.702403783849,80.5531857939965,-48.5734279472991,-31.9797578466977, , , , , , , , , , , , , , , , , , , , , , , , , , , , , , , , , , , , , , , , , , , , , , , , , , , , , , , , , , , , ,
-80.3376962033975,-75.0219624271303,5.31573377626742,-92.2717081634588,-74.2840943840017,-133.305981164452,-178.685545188776,-165.958308924893,-116.702403783849,77.6798293152632,-42.8267149898324,-34.8531143254311, , , , , , , , , , , , , , , , , , , , , , , , , , , , , , , , , , , , , , , , , , , , , , , , , , , , , , , , , , , , ,
-74.3302204215976,-75.0219624271303,-0.691742005532529,-96.0026279687053,-73.1072876085205,-133.305981164452,-178.685545188776,-165.958308924893,-116.702403783849,74.6760914243632,-36.8192392080324,-37.8568522163311, , , , , , , , , , , , , , , , , , , , , , , , , , , , , , , , , , , , , , , , , , , , , , , , , , , , , , , , , , , , ,
-68.3613695060902,-75.0219624271303,-6.6605929210399,-97.044984741936,-71.9344241362249,-133.305981164452,-178.685545188776,-165.958308924893,-115.594870499153,71.6916659666095,-30.8503882925251,-40.8412776740847, , , , , , , , , , , , , , , , , , , , , , , , , , , , , , , , , , , , , , , , , , , , , , , , , , , , , , , , , , , , ,
-63.9439532631435,-75.0219624271303,-11.0780091639866,-100.210503802884,-70.7939935481145,-133.305981164452,-178.685545188776,-165.958308924893,-112.317598321923,69.4829578451362,-26.4329720495783,-43.0499857955581, , , , , , , , , , , , , , , , , , , , , , , , , , , , , , , , , , , , , , , , , , , , , , , , , , , , , , , , , , , , ,
-59.0758460229471,-75.0219624271303,-15.946116404183,-104.206430421872,-69.710568477896,-133.305981164452,-178.685545188776,-165.958308924893,-107.93551198239,67.0489042250379,-21.5648648093819,-45.4840394156563, , , , , , , , , , , , , , , , , , , , , , , , , , , , , , , , , , , , , , , , , , , , , , , , , , , , , , , , , , , , ,
-53.2242445596188,-75.0219624271303,-21.7977178675113,-107.080476387655,-68.7027844325909,-133.305981164452,-178.685545188776,-165.458620483071,-103.558270435787,64.1231034933738,-15.7132633460537,-48.4098401473204, , , , , , , , , , , , , , , , , , , , , , , , , , , , , , , , , , , , , , , , , , , , , , , , , , , , , , , , , , , , ,
-49.8984914633921,-75.0219624271303,-25.123470963738,-111.186144479977,-67.7816244960807,-133.305981164452,-178.685545188776,-162.398990067068,-100.125733022852,62.4602269452605,-12.387510249827,-50.0727166954338, , , , , , , , , , , , , , , , , , , , , , , , , , , , , , , , , , , , , , , , , , , , , , , , , , , , , , , , , , , , ,
-44.2556877242614,-75.0219624271303,-30.7662747028687,-112.367222890285,-66.9491309066696,-133.305981164452,-178.685545188776,-156.741985170312,-96.8304801734606,59.6388250756951,-6.74470651069622,-52.8941185649992, , , , , , , , , , , , , , , , , , , , , , , , , , , , , , , , , , , , , , , , , , , , , , , , , , , , , , , , , , , , ,
-39.2555434536517,-75.0219624271303,-35.7664189734784,-115.593132892883,-66.1976934762322,-133.305981164452,-176.237208196167,-151.821888621772,-92.3534400118941,57.1387529403903,-1.74456224008659,-55.394190700304, , , , , , , , , , , , , , , , , , , , , , , , , , , , , , , , , , , , , , , , , , , , , , , , , , , , , , , , , , , , ,
-35.5230082154325,-75.0219624271303,-39.4989542116976,-119.414014284774,-65.5100847880271,-133.305981164452,-172.462172325643,-147.138937941629,-87.8402425036428,55.2724853212807,1.9879729981326,-57.2604583194136, , , , , , , , , , , , , , , , , , , , , , , , , , , , , , , , , , , , , , , , , , , , , , , , , , , , , , , , , , , , ,
-29.8329319599105,-75.0219624271303,-45.1890304672196,-121.089067162882,-64.8603878149418,-133.305981164452,-168.56814254489,-140.487821333231,-83.7903415868578,52.4274471935197,7.67804925365465,-60.1054964471746, , , , , , , , , , , , , , , , , , , , , , , , , , , , , , , , , , , , , , , , , , , , , , , , , , , , , , , , , , , , ,
-24.083070853666,-75.0219624271303,-50.9388915734641,-122.94201482851,-64.2158686946517,-133.305981164452,-163.271892247605,-134.582750227724,-80.2625694296172,49.5525166403974,13.4279103598992,-62.9804270002969, , , , , , , , , , , , , , , , , , , , , , , , , , , , , , , , , , , , , , , , , , , , , , , , , , , , , , , , , , , , ,
-19.0556641075564,-75.0219624271303,-55.9662983195738,-124.948214304358,-63.5396974053802,-133.305981164452,-157.704340147026,-129.407732714494,-75.4075962026236,47.0388132673426,18.4553171060088,-65.4941303733517, , , , , , , , , , , , , , , , , , , , , , , , , , , , , , , , , , , , , , , , , , , , , , , , , , , , , , , , , , , , ,
-15.2832563789721,-75.0219624271303,-59.738706048158,-127.073476982206,-62.7942611628338,-133.305981164452,-153.708566808565,-121.748491032027,-70.4772141937706,45.1526094030505,22.2277248345931,-67.3803342376438, , , , , , , , , , , , , , , , , , , , , , , , , , , , , , , , , , , , , , , , , , , , , , , , , , , , , , , , , , , , ,
-9.62887111997875,-75.0219624271303,-65.3930913071514,-129.278240310806,-61.9447080793019,-133.305981164452,-147.940858059463,-115.205145345307,-66.0117324483162,42.3254167735538,27.8821100935864,-70.2075268671405, , , , , , , , , , , , , , , , , , , , , , , , , , , , , , , , , , , , , , , , , , , , , , , , , , , , , , , , , , , , ,
-6.51605317894636,-75.0219624271303,-68.5059092481837,-131.52201786879,-60.9623357000076,-127.385229403732,-141.279025013325,-108.357868177128,-61.3702053923373,40.7690078030376,30.9949280346188,-71.7639358376567, , , , , , , , , , , , , , , , , , , , , , , , , , , , , , , , , , , , , , , , , , , , , , , , , , , , , , , , , , , , ,
-3.0269207993401,-75.0219624271303,-71.99504162779,-133.767656147233,-59.8274980776909,-123.728191969436,-135.223022508727,-99.4933015502669,-56.0427942962836,39.0244416132345,34.484060414225,-73.5085020274598, , , , , , , , , , , , , , , , , , , , , , , , , , , , , , , , , , , , , , , , , , , , , , , , , , , , , , , , , , , , ,
3.15289564325199,-75.0219624271303,-78.1748580703821,-135.985026698621,-58.5318122700632,-117.812004755463,-129.222581464663,-92.7607647540835,-51.4233697401074,35.9345333919384,40.6638768568171,-76.5984102487558, , , , , , , , , , , , , , , , , , , , , , , , , , , , , , , , , , , , , , , , , , , , , , , , , , , , , , , , , , , , ,
8.02975803521525,-75.0219624271303,-83.0517204623454,-138.15389637626,-57.0795476862942,-111.506600436964,-121.369204020022,-83.7700693509939,-45.8778172963853,33.4961021959568,45.5407392487804,-79.0368414447375, , , , , , , , , , , , , , , , , , , , , , , , , , , , , , , , , , , , , , , , , , , , , , , , , , , , , , , , , , , , ,
12.7895388841208,-73.3836045545438,-86.1731434386643,-140.265810785971,-55.4881372574201,-105.107289921076,-113.953536342406,-74.7569063627621,-40.3732895547686,30.2970328352107,49.4813411613927,-79.7783739966037, , , , , , , , , , , , , , , , , , , , , , , , , , , , , , , , , , , , , , , , , , , , , , , , , , , , , , , , , , , , ,
18.9684481110822,-70.5106338030483,-89.4790819141303,-142.324889587006,-55.4881372574201,-100.760907336462,-107.281007661626,-66.9433662480747,-34.9464704937783,25.7710928459823,54.2237650126063,-79.9948578585889, , , , , , , , , , , , , , , , , , , , , , , , , , , , , , , , , , , , , , , , , , , , , , , , , , , , , , , , , , , , ,
24.9900990103533,-68.5496592083647,-93.5397582187178,-144.347478639634,-55.4881372574201,-94.2225006659625,-98.6069790665113,-56.9751626716358,-29.6216283060583,21.7797800990049,59.2649286145357,-81.0447087135409, , , , , , , , , , , , , , , , , , , , , , , , , , , , , , , , , , , , , , , , , , , , , , , , , , , , , , , , , , , , ,
29.938944467602,-66.4522893344429,-96.3912338020447,-146.360648803857,-55.4881372574201,-87.5586501266768,-90.7294218641073,-48.9621870774511,-24.415600016908,18.2566724334197,63.1650891348234,-81.4217615682434, , , , , , , , , , , , , , , , , , , , , , , , , , , , , , , , , , , , , , , , , , , , , , , , , , , , , , , , , , , , ,
34.4232221937283,-63.1112891071968,-97.5345113009248,-148.399594846583,-55.4881372574201,-80.8780548322162,-83.5384711810844,-39.8779466180142,-19.3362965584759,14.3440334567335,65.9788667473267,-80.3229002040604, , , , , , , , , , , , , , , , , , , , , , , , , , , , , , , , , , , , , , , , , , , , , , , , , , , , , , , , , , , , ,
40.0234660665725,-59.8332467774764,-99.8567128440486,-150.504090879729,-55.4881372574201,-75.8168623745094,-74.7404716394827,-30.6971004843519,-14.3816071765706,9.90489035545116,69.9400894553107,-79.8449798107621, , , , , , , , , , , , , , , , , , , , , , , , , , , , , , , , , , , , , , , , , , , , , , , , , , , , , , , , , , , , ,
45.3957509529106,-56.6053859589568,-102.001136911867,-152.714298544547,-55.4881372574201,-69.945601883663,-67.1805468002946,-23.4731346008762,-9.5387068503358,5.60481750302232,73.6984439323889,-79.3032614354116, , , , , , , , , , , , , , , , , , , , , , , , , , , , , , , , , , , , , , , , , , , , , , , , , , , , , , , , , , , , ,
50.5929034950828,-54.0275390569969,-104.620442552079,-155.066362468007,-55.4881372574201,-63.4765032117662,-60.0267673526313,-14.7241322052045,-4.78373605890422,1.71731778095634,77.6066730235812,-79.3239908045378, , , , , , , , , , , , , , , , , , , , , , , , , , , , , , , , , , , , , , , , , , , , , , , , , , , , , , , , , , , , ,
55.7073694438391,-51.1859955030813,-106.89336494692,-157.588308511902,-54.3893215092603,-57.0976894399088,-51.747959301495,-6.97355202387703,-0.0818157006865192,-2.26068697037967,81.3003671953798,-79.0396802250004, , , , , , , , , , , , , , , , , , , , , , , , , , , , , , , , , , , , , , , , , , , , , , , , , , , , , , , , , , , , ,
60.4071098618994,-47.9795921517036,-108.386702013603,-160.296743480878,-52.2031155654298,-52.5964388610981,-44.7402378637975,-0.408180412355676,4.6126241365144,-6.21375885509863,84.3969059377512,-78.1831470826528, , , , , , , , , , , , , , , , , , , , , , , , , , , , , , , , , , , , , , , , , , , , , , , , , , , , , , , , , , , , ,
65.229151611349,-45.3621880862304,-110.591339697579,-163.194738431114,-51.0806435942617,-47.3132548226445,-39.0285255334187,6.95107557319909,9.35520360291423,-9.93348176256006,87.9102456544642,-77.9767638919044, , , , , , , , , , , , , , , , , , , , , , , , , , , , , , , , , , , , , , , , , , , , , , , , , , , , , , , , , , , , ,
70.8330613377865,-41.7427140882434,-112.57577542603,-166.27109997407,-49.5962973164945,-41.2708040494612,-33.5811279430729,13.8273751702974,14.2106282360321,-14.5451736247723,91.7044183819082,-77.1592447571361, , , , , , , , , , , , , , , , , , , , , , , , , , , , , , , , , , , , , , , , , , , , , , , , , , , , , , , , , , , , ,
76.8252525236003,-37.9426581840153,-114.767910707615,-169.501048471981,-47.64190305198,-35.3870948091149,-27.3531702417069,19.5064942433027,18.3043632917387,-19.4412971697933,95.7965816156079,-76.3552844458149, , , , , , , , , , , , , , , , , , , , , , , , , , , , , , , , , , , , , , , , , , , , , , , , , , , , , , , , , , , , ,
83.3629594895711,-33.9135237377112,-117.276483227282,-172.848165268529,-45.6848206068115,-32.0690902752333,-19.8299206892312,25.5911500352087,23.0242300580985,-24.7247178759307,100.319721358427,-75.5950034824963, , , , , , , , , , , , , , , , , , , , , , , , , , , , , , , , , , , , , , , , , , , , , , , , , , , , , , , , , , , , ,
90.5910133235864,-30.2693775473302,-120.860390870916,-176.267358851732,-45.3046310905902,-25.9884449824452,-12.7095447673254,31.789833629501,28.3518548840766,-30.1608178881289,105.725702097252,-75.564884209123, , , , , , , , , , , , , , , , , , , , , , , , , , , , , , , , , , , , , , , , , , , , , , , , , , , , , , , , , , , , ,
97.4480611584815,-26.3112848549323,-123.759346013414,-179.708543049729,-43.469188543307,-19.758927424029,-6.71855459889315,37.9625941448138,34.0874859405492,-35.5683881517753,110.603703585948,-75.0353154341726, , , , , , , , , , , , , , , , , , , , , , , , , , , , , , , , , , , , , , , , , , , , , , , , , , , , , , , , , , , , ,
104.403818057224,-21.6183595200421,-126.022177577266,-183.12071956936,-41.3273958996517,-15.3041704712029,1.07486461282656,44.2677183633211,38.3684439017499,-41.3927292685918,115.212997817245,-73.8202685486537, , , , , , , , , , , , , , , , , , , , , , , , , , , , , , , , , , , , , , , , , , , , , , , , , , , , , , , , , , , , ,
113.447609769665,-17.6499270132183,-131.097536782883,-186.456186270263,-40.2011349659603,-9.59409032677553,9.11059799902802,50.3495303341161,44.5458568776249,-47.8988413782241,122.272573276274,-74.3737318980502, , , , , , , , , , , , , , , , , , , , , , , , , , , , , , , , , , , , , , , , , , , , , , , , , , , , , , , , , , , , ,
121.589422843162,-13.1889599290297,-134.778382772192,-189.674615702467,-38.9129322971655,-3.02498680411435,16.6456861748079,57.0395262590177,51.1797351005141,-54.200231457067,128.183902807677,-73.9836713506102, , , , , , , , , , , , , , , , , , , , , , , , , , , , , , , , , , , , , , , , , , , , , , , , , , , , , , , , , , , , ,
129.229456477854,-9.3854482189446,-138.614904696799,-192.746752428229,-37.0266866805707,1.79354545406764,24.6067944251349,64.5089228032093,56.3964681506347,-59.9220041294556,133.922180587326,-74.0001764578712, , , , , , , , , , , , , , , , , , , , , , , , , , , , , , , , , , , , , , , , , , , , , , , , , , , , , , , , , , , , ,
139.240665087656,-6.03818925257848,-145.278854340234,-195.657473111296,-35.5010685870876,8.31351867132094,33.921448816175,72.5895023805784,64.4875927073997,-66.6012379175397,142.259759713945,-75.6585217964061, , , , , , , , , , , , , , , , , , , , , , , , , , , , , , , , , , , , , , , , , , , , , , , , , , , , , , , , , , , , ,
145.505258171964,-1.59722408410617,-147.10248225607,-198.853727978772,-33.6102050151124,14.6541244549784,43.755433438429,81.3554673735109,70.2193732491355,-71.9540170439295,146.303870214017,-74.3498531700875, , , , , , , , , , , , , , , , , , , , , , , , , , , , , , , , , , , , , , , , , , , , , , , , , , , , , , , , , , , , ,
153.139316452741,1.97210172928371,-151.167214723457,-203.592278117438,-31.3675320320612,22.9685043729237,53.3692310013059,89.8481235612977,77.3367257073545,-77.5557090910131,152.153265588099,-74.5975564970863, , , , , , , , , , , , , , , , , , , , , , , , , , , , , , , , , , , , , , , , , , , , , , , , , , , , , , , , , , , , ,
158.281186905538,5.91520277561452,-152.365984129924,-207.080924937426,-28.8113665536953,31.1857171272752,63.2430557689223,99.5020394826221,83.5523619284042,-82.0981948405772,155.323585517731,-73.2253906771542, , , , , , , , , , , , , , , , , , , , , , , , , , , , , , , , , , , , , , , , , , , , , , , , , , , , , , , , , , , , ,
165.716559953129,10.0004930025054,-155.716066950623,-210.856255268995,-26.0032943139966,37.6976079146504,74.5786125371353,109.222182655749,91.9717121842511,-87.858526477818,160.716313451876,-72.8577869740586, , , , , , , , , , , , , , , , , , , , , , , , , , , , , , , , , , , , , , , , , , , , , , , , , , , , , , , , , , , , ,
171.705339678676,12.7350178925199,-158.970321786156,-213.536484643491,-23.0241725915447,46.0237799066632,86.3657568701767,118.690453930193,98.9054365596348,-92.2201787855989,165.337830732416,-73.1176519468178, , , , , , , , , , , , , , , , , , , , , , , , , , , , , , , , , , , , , , , , , , , , , , , , , , , , , , , , , , , , ,
180.054379219947,17.0199064539821,-163.034472765964,-216.286865151377,-19.967826165542,52.5540287961737,97.3514629717371,129.382086008677,108.866944375726,-98.5371428369651,171.544425992956,-73.0072831559907, , , , , , , , , , , , , , , , , , , , , , , , , , , , , , , , , , , , , , , , , , , , , , , , , , , , , , , , , , , , ,
188.144540278251,19.8678001846456,-168.276740093605,-219.87945663867,-16.9328773808222,59.6180172622907,108.729411407821,140.79860845045,117.004262849615,-104.006170231449,178.210640185928,-74.2044699544793, , , , , , , , , , , , , , , , , , , , , , , , , , , , , , , , , , , , , , , , , , , , , , , , , , , , , , , , , , , , ,
193.871457256573,23.5512024263333,-170.320254830239,-223.030078154419,-14.0135153605328,68.3632237807668,120.858545074728,151.15900363845,126.17512277408,-108.711329841454,182.095856043406,-73.3845262019526, , , , , , , , , , , , , , , , , , , , , , , , , , , , , , , , , , , , , , , , , , , , , , , , , , , , , , , , , , , , ,
202.580782293049,26.9182273231235,-175.662554969925,-226.90222402369,-11.2902816241748,75.4057758105168,131.068609180996,163.292140291161,136.084357209542,-114.749504808087,189.121668631487,-74.3721638234004, , , , , , , , , , , , , , , , , , , , , , , , , , , , , , , , , , , , , , , , , , , , , , , , , , , , , , , , , , , , ,
208.292327747459,30.7437569486126,-177.548570798846,-231.046969753397,-8.82205885217437,83.0403565598127,141.651352232149,175.221218741892,143.747583299215,-119.518042348036,192.920449273152,-73.4024069251162, , , , , , , , , , , , , , , , , , , , , , , , , , , , , , , , , , , , , , , , , , , , , , , , , , , , , , , , , , , , ,
214.408698629592,35.9491604717636,-178.459538157828,-235.998132585815,-6.64035156919755,90.9920307818529,154.055863247043,185.581967808348,153.502024401576,-125.178929550679,196.43411839371,-71.255188843032, , , , , , , , , , , , , , , , , , , , , , , , , , , , , , , , , , , , , , , , , , , , , , , , , , , , , , , , , , , , ,
223.960732946457,39.653164091947,-184.30756885451,-240.531400123192,-4.74662385525673,98.6408546216238,164.307613992437,198.112213234599,163.327297140988,-131.806948519203,204.134150900484,-72.3272023812811, , , , , , , , , , , , , , , , , , , , , , , , , , , , , , , , , , , , , , , , , , , , , , , , , , , , , , , , , , , , ,
232.095526743685,43.5995551377925,-188.495971605893,-247.296351542214,-3.11295849561927,104.4820692322,177.117004734204,209.506177666215,171.173810626429,-137.84754094074,210.295749174789,-72.4482082340497, , , , , , , , , , , , , , , , , , , , , , , , , , , , , , , , , , , , , , , , , , , , , , , , , , , , , , , , , , , , ,
242.016195505045,48.0962044150997,-193.919991089945,-252.641417650027,-1.68576173286294,111.854537941831,190.24003548342,220.714189589788,180.80179751694,-145.056199960073,217.968093297495,-72.9118933374222, , , , , , , , , , , , , , , , , , , , , , , , , , , , , , , , , , , , , , , , , , , , , , , , , , , , , , , , , , , , ,
251.455760925189,53.1483652405194,-198.307395684669,-257.934805995678,-0.3918190580535,119.222461137745,200.731288292283,233.951614400024,190.841827977917,-152.302063082855,224.881578304929,-72.5795152220746, , , , , , , , , , , , , , , , , , , , , , , , , , , , , , , , , , , , , , , , , , , , , , , , , , , , , , , , , , , , ,
262.580124534776,58.7291510194812,-203.850973515295,-263.474041343859,0.854203677935232,126.647653409956,214.344296282964,244.404672683055,199.314956143047,-160.654637777129,233.215549025036,-72.5609112479064, , , , , , , , , , , , , , , , , , , , , , , , , , , , , , , , , , , , , , , , , , , , , , , , , , , , , , , , , , , , ,
274.463651537627,64.7807855496775,-209.682865987949,-269.22503643952,2.14173949898938,132.953396747151,228.781621743174,258.067120171895,207.185893369816,-169.622218543653,242.073258762788,-72.4510402191354, , , , , , , , , , , , , , , , , , , , , , , , , , , , , , , , , , , , , , , , , , , , , , , , , , , , , , , , , , , , ,
286.642398129352,71.2183199041467,-215.424078225205,-276.417525887021,3.55660045256204,139.62855509431,240.275925628071,270.992664087152,215.224329410191,-178.93035901675,251.033238177279,-72.1028791605289, , , , , , , , , , , , , , , , , , , , , , , , , , , , , , , , , , , , , , , , , , , , , , , , , , , , , , , , , , , , ,
299.108570015075,77.9357201767684,-221.172849838307,-282.438807885713,5.17421033868916,146.755023685332,255.960392525661,284.030377660421,223.466231910852,-188.522145095923,260.140709926691,-71.6185648307688, , , , , , , , , , , , , , , , , , , , , , , , , , , , , , , , , , , , , , , , , , , , , , , , , , , , , , , , , , , , ,
311.803120938464,84.81391213068,-226.989208807784,-289.599546625877,7.05425225795616,154.394865188632,271.811884813377,299.728199889549,231.940123043557,-198.308516534573,269.396164873124,-71.0876483385517, , , , , , , , , , , , , , , , , , , , , , , , , , , , , , , , , , , , , , , , , , , , , , , , , , , , , , , , , , , , ,
323.422989389746,91.7300428658559,-231.69294652389,-295.698651515613,9.23701298862224,162.586079122826,285.880878136012,312.458540138881,240.664540022501,-207.576516127802,277.557967956818,-69.9814518290165, , , , , , , , , , , , , , , , , , , , , , , , , , , , , , , , , , , , , , , , , , , , , , , , , , , , , , , , , , , , ,
335.007775278023,98.5669978120845,-236.440777465939,-303.481654009064,11.7415515805837,171.340070904692,304.059099059123,329.436476574224,249.646418750341,-216.787386545055,285.724276371981,-68.9368898269267, , , , , , , , , , , , , , , , , , , , , , , , , , , , , , , , , , , , , , , , , , , , , , , , , , , , , , , , , , , , ,
346.431252595832,105.222172251342,-241.20908034449,-309.246972905349,14.5656927406343,180.640912847104,320.878718857241,342.872828335603,258.8805480163,-225.826712423588,293.820166470161,-67.9934540465737, , , , , , , , , , , , , , , , , , , , , , , , , , , , , , , , , , , , , , , , , , , , , , , , , , , , , , , , , , , , ,
357.591961162194,111.614651711479,-245.977309450715,-315.051991433464,17.687734294086,190.446427272816,338.412012516207,357.634955266096,268.350176464176,-234.603306436837,301.784635306454,-67.1813288696174, , , , , , , , , , , , , , , , , , , , , , , , , , , , , , , , , , , , , , , , , , , , , , , , , , , , , , , , , , , , ,
368.419439168616,117.690228917886,-250.729210250729,-320.502975806994,21.0696427664002,200.691020812239,358.917916191384,372.915595482729,278.028736173124,-243.054834043252,309.574324709673,-66.5194906664211, , , , , , , , , , , , , , , , , , , , , , , , , , , , , , , , , , , , , , , , , , , , , , , , , , , , , , , , , , , , ,
378.877991650999,123.423960926124,-255.454030724875,-325.967142767453,24.6613843388132,211.290052795956,375.37382251855,391.766998844934,287.882495005271,-251.150976288562,317.166011187937,-66.0150348993752, , , , , , , , , , , , , , , , , , , , , , , , , , , , , , , , , , , , , , , , , , , , , , , , , , , , , , , , , , , , ,
388.967721201611,128.82018574082,-260.147535460791,-332.3660586146,28.4059208545818,222.145362295712,395.975517607119,407.044443320735,297.873806080964,-258.893953471216,324.557628331201,-65.6636748599851, , , , , , , , , , , , , , , , , , , , , , , , , , , , , , , , , , , , , , , , , , , , , , , , , , , , , , , , , , , , ,
398.722736171262,133.910092786604,-264.812643384658,-337.739628800634,32.244338231913,233.151464548438,412.75403004825,422.580633746126,307.96452947238,-266.316414478933,331.76768977796,-65.4512752990265, , , , , , , , , , , , , , , , , , , , , , , , , , , , , , , , , , , , , , , , , , , , , , , , , , , , , , , , , , , , ,
408.206692627273,138.747115143227,-269.459577484046,-343.192027448382,36.1206063986959,244.20189878304,430.400756556309,438.283082478813,318.119187150193,-273.476903885251,338.83313505566,-65.3562311704092, , , , , , , , , , , , , , , , , , , , , , , , , , , , , , , , , , , , , , , , , , , , , , , , , , , , , , , , , , , , ,
417.506072628187,143.400582597325,-274.105490030861,-349.25114114879,39.9855849386901,255.195258636784,449.678967870152,454.06256639779,328.307476346826,-280.453327612757,345.805781329524,-65.3524537167676, , , , , , , , , , , , , , , , , , , , , , , , , , , , , , , , , , , , , , , , , , , , , , , , , , , , , , , , , , , , ,
426.721791713053,147.948219084177,-278.773572628875,-356.117286989268,43.8000278296016,266.040519821749,469.421038432246,469.837172794217,338.505873520947,-287.335005398616,352.747682170964,-65.4126767723484, , , , , , , , , , , , , , , , , , , , , , , , , , , , , , , , , , , , , , , , , , , , , , , , , , , , , , , , , , , , ,
435.959841886112,152.46817813796,-283.491663748152,-361.143046198543,47.5364508524497,276.661359967004,488.946029275996,485.535200626471,348.698170603449,-294.214010012037,359.725752817132,-65.5117428050955, , , , , , , , , , , , , , , , , , , , , , , , , , , , , , , , , , , , , , , , , , , , , , , , , , , , , , , , , , , , ,
445.321735751066,157.031381761581,-288.290353989484,-366.199645377043,51.1798026730979,286.999239402814,505.228795307734,501.09682428403,358.874892335556,-301.176558756325,366.806044870275,-65.6294861139511, , , , , , , , , , , , , , , , , , , , , , , , , , , , , , , , , , , , , , , , , , , , , , , , , , , , , , , , , , , , ,
454.8955351801,161.694932922888,-293.200602257212,-371.408828731654,54.7269540726607,297.015098792603,521.185855016107,516.474534077862,369.031672649703,-308.295234051495,374.048068718656,-65.7528346671613, , , , , , , , , , , , , , , , , , , , , , , , , , , , , , , , , , , , , , , , , , , , , , , , , , , , , , , , , , , , ,
464.748202269174,166.497281072764,-298.250921196409,-377.627124314967,58.185107499506,306.689639704216,536.780453847705,531.632501255032,379.166819883929,-315.62274167097,381.499561732791,-65.8768200618219, , , , , , , , , , , , , , , , , , , , , , , , , , , , , , , , , , , , , , , , , , , , , , , , , , , , , , , , , , , , ,
474.919888253707,171.455643771211,-303.464244482496,-385.640659775043,61.5693264846171,316.022275575236,551.992336196442,546.54514776744,389.278431889089,-323.187766012459,389.192066368102,-66.0043003556423, , , , , , , , , , , , , , , , , , , , , , , , , , , , , , , , , , , , , , , , , , , , , , , , , , , , , , , , , , , , ,
485.420597167809,176.565951796637,-308.854645371172,-391.06208616477,64.8994788467481,325.028956239796,566.816020046271,561.195281248814,399.361487296472,-330.993274482224,397.137621269491,-66.1443467872671, , , , , , , , , , , , , , , , , , , , , , , , , , , , , , , , , , , , , , , , , , , , , , , , , , , , , , , , , , , , ,
496.22944614659,181.80529304194,-314.42415310465,-396.399410202836,68.196961763292,333.73916565687,581.258551454497,575.572159484918,409.405326909621,-339.017369594265,405.32679962562,-66.3094300313547, , , , , , , , , , , , , , , , , , , , , , , , , , , , , , , , , , , , , , , , , , , , , , , , , , , , , , , , , , , , ,
507.296502687186,187.136487820086,-320.1600148671,-403.351463830409,71.481607527701,342.192453021233,595.3370169425,589.669784965205,419.391864067082,-347.216495253636,413.728258777143,-66.5117635235066, , , , , , , , , , , , , , , , , , , , , , , , , , , , , , , , , , , , , , , , , , , , , , , , , , , , , , , , , , , , ,
518.546936899561,192.514097268528,-326.032839631033,-408.78432222453,76.360550283189,350.434867801243,609.076065275373,603.485622859293,429.294748815328,-355.530517084045,422.289888265297,-66.7593711812522, , , , , , , , , , , , , , , , , , , , , , , , , , , , , , , , , , , , , , , , , , , , , , , , , , , , , , , , , , , , ,
529.887027282944,197.89095631736,-331.996070965584,-415.147866782942,81.1131380700615,358.51562859074,622.505633826617,617.019814258893,439.079583500614,-363.888991800153,430.941549124264,-67.0525573241114, , , , , , , , , , , , , , , , , , , , , , , , , , , , , , , , , , , , , , , , , , , , , , , , , , , , , , , , , , , , ,
541.211426659512,203.224314482669,-337.987112176843,-423.078167628437,84.6588254413286,366.484271661349,635.658996328389,630.274845720119,448.705164180571,-372.217870571091,439.599269418178,-67.381398847087, , , , , , , , , , , , , , , , , , , , , , , , , , , , , , , , , , , , , , , , , , , , , , , , , , , , , , , , , , , , ,
552.411026438245,208.480856020917,-343.930170417328,-428.584765984733,89.054981985563,374.388407816841,648.5711556481,643.255548717921,458.125608564254,-380.445941229582,448.170598427787,-67.7246571982048, , , , , , , , , , , , , , , , , , , , , , , , , , , , , , , , , , , , , , , , , , , , , , , , , , , , , , , , , , , , ,
563.380742169602,213.640167225348,-349.740574944254,-434.093576023181,93.5245899522354,382.272088295085,661.277512780135,655.969246459353,467.293134886863,-388.510454697475,456.560658556928,-68.0502038594527, , , , , , , , , , , , , , , , , , , , , , , , , , , , , , , , , , , , , , , , , , , , , , , , , , , , , , , , , , , , ,
574.026575415723,218.696504162238,-355.330071253485,-439.591232641219,97.8351876009092,390.174680778147,673.812683693963,668.425852561838,476.161196535446,-396.361539788981,464.678323334604,-68.3167835456232, , , , , , , , , , , , , , , , , , , , , , , , , , , , , , , , , , , , , , , , , , , , , , , , , , , , , , , , , , , , ,
584.271379943323,223.658905892938,-360.612474050386,-445.062308884711,101.523788215422,398.130116722109,686.209340189639,680.637765069225,484.68767135399,-403.965142918131,472.441926996855,-68.4767840787236, , , , , , , , , , , , , , , , , , , , , , , , , , , , , , , , , , , , , , , , , , , , , , , , , , , , , , , , , , , , ,
594.05887382202,228.549790078155,-365.509083743865,-450.488703818403,105.269787681675,406.166392981046,698.497020362882,692.619483509238,492.837849124872,-411.304331950088,479.783978782943,-68.4796468328546, , , , , , , , , , , , , , , , , , , , , , , , , , , , , , , , , , , , , , , , , , , , , , , , , , , , , , , , , , , , ,
603.355604280927,233.402216657968,-369.953387622959,-455.84904263133,109.198837982757,414.305267244665,710.700952470226,704.386981067828,500.587031969343,-418.378910469449,486.654495951943,-68.2755854824949, , , , , , , , , , , , , , , , , , , , , , , , , , , , , , , , , , , , , , , , , , , , , , , , , , , , , , , , , , , , ,
612.150792498819,238.256072716514,-373.894719782304,-461.118159998313,112.385800130498,422.562137886995,722.841010906583,715.956949820462,507.922629231298,-425.203432607667,493.022756140562,-67.8193235328947, , , , , , , , , , , , , , , , , , , , , , , , , , , , , , , , , , , , , , , , , , , , , , , , , , , , , , , , , , , , ,
620.454230293491,243.15353491303,-377.300695380461,-466.266760752391,115.576191413152,430.946110570908,734.930937769398,727.3460666369,514.845665285567,-431.803882603261,498.877462836976,-67.0735802337152, , , , , , , , , , , , , , , , , , , , , , , , , , , , , , , , , , , , , , , , , , , , , , , , , , , , , , , , , , , , ,
628.292607752754,248.134268579223,-380.158339173531,-471.261387901061,119.35099457418,439.460217929839,746.977914322333,738.570385721908,521.371614734687,-438.213438165989,504.225473463142,-66.0120352971535, , , , , , , , , , , , , , , , , , , , , , , , , , , , , , , , , , , , , , , , , , , , , , , , , , , , , , , , , , , , ,
635.704764686163,253.23085846175,-382.473906224413,-476.064854617791,123.066572236367,448.101697580139,758.982480363966,749.644872737617,527.530447315463,-444.467811573957,509.089335455288,-64.6215238813314, , , , , , , , , , , , , , , , , , , , , , , , , , , , , , , , , , , , , , , , , , , , , , , , , , , , , , , , , , , , ,
642.736375434194,258.464891930088,-384.271483504106,-480.637283011938,126.688667265524,456.862191416874,770.938719118888,760.583007394375,533.365743868805,-450.600633682142,513.50392946915,-62.9032957870083, , , , , , , , , , , , , , , , , , , , , , , , , , , , , , , , , , , , , , , , , , , , , , , , , , , , , , , , , , , , ,
649.434546820446,263.843962570714,-385.590584249732,-484.937817718351,129.859122826384,465.72774907513,782.834589946873,771.396348608935,538.932782805847,-456.639254695581,517.512565535089,-60.8733108395083, , , , , , , , , , , , , , , , , , , , , , , , , , , , , , , , , , , , , , , , , , , , , , , , , , , , , , , , , , , , ,
655.842781718813,269.359716232813,-386.483065486,-488.926948878368,133.670949624915,474.678615334833,794.652316133274,782.093996356006,544.295612703603,-462.601248975814,521.162923602407,-58.5616746265933, , , , , , , , , , , , , , , , , , , , , , , , , , , , , , , , , , , , , , , , , , , , , , , , , , , , , , , , , , , , ,
661.996726903508,274.986983565203,-387.009743338306,-492.569218988393,137.619463479028,483.688920913542,806.368802149318,792.681965638658,549.523284177695,-468.491855234356,524.503235120907,-56.0113798865511, , , , , , , , , , , , , , , , , , , , , , , , , , , , , , , , , , , , , , , , , , , , , , , , , , , , , , , , , , , , ,
667.921036981004,280.684031545861,-387.237005435143,-495.835964380227,141.748314568335,492.726504188182,817.956117280042,803.162546510737,554.685537755345,-474.302534263433,527.579021208074,-53.2764869446409, , , , , , , , , , , , , , , , , , , , , , , , , , , , , , , , , , , , , , , , , , , , , , , , , , , , , , , , , , , , ,
673.627529871047,286.393979474521,-387.233550396526,-498.707715889696,145.407453524033,501.753100877747,829.382092726362,813.533711770748,559.848281922642,-480.010754672785,530.430540133786,-50.419785461002, , , , , , , , , , , , , , , , , , , , , , , , , , , , , , , , , , , , , , , , , , , , , , , , , , , , , , , , , , , , ,
679.114621789957,292.047398298478,-387.067223491479,-501.175954740647,149.6415934393,510.725047834539,840.611033587041,823.788569065885,565.069164558272,-485.581010044218,533.090922640718,-47.5099125965, , , , , , , , , , , , , , , , , , , , , , , , , , , , , , , , , , , , , , , , , , , , , , , , , , , , , , , , , , , , ,
684.367872280713,297.565992233531,-386.801880047181,-503.24402032456,153.340742331197,519.594521437262,851.604494176998,833.914808378952,570.393502531972,-490.966932257123,535.584876163947,-44.6179439068244, , , , , , , , , , , , , , , , , , , , , , , , , , , , , , , , , , , , , , , , , , , , , , , , , , , , , , , , , , , , ,
689.361393579403,302.867072096667,-386.494321482737,-504.927036896892,157.183890818866,528.311234390563,862.322050228022,843.894115898556,575.850823350752,-496.114232838036,537.92785753107,-41.8136246930346, , , , , , , , , , , , , , , , , , , , , , , , , , , , , , , , , , , , , , , , , , , , , , , , , , , , , , , , , , , , ,
694.05990478907,307.868381367856,-386.191523421214,-506.25078280706,161.161899728668,536.824453184522,872.722016615829,853.70158451479,581.452270175448,-500.964143078464,540.125714105142,-39.1615710266789, , , , , , , , , , , , , , , , , , , , , , , , , , , , , , , , , , , , , , , , , , , , , , , , , , , , , , , , , , , , ,
698.421311237188,312.492828361934,-385.928482875253,-507.249523826217,165.257766953896,545.085143577532,882.762064543569,863.046630793918,587.189086775302,-505.457069799562,542.174897056221,-36.7178272566589, , , , , , , , , , , , , , , , , , , , , , , , , , , , , , , , , , , , , , , , , , , , , , , , , , , , , , , , , , , , ,
702.399788405689,316.672804181131,-385.726984224557,-507.962981913792,169.447731127832,553.047994403995,891.517153224894,872.356861986084,593.032314750046,-509.536296293411,544.063386315123,-34.5270900217126, , , , , , , , , , , , , , , , , , , , , , , , , , , , , , , , , , , , , , , , , , , , , , , , , , , , , , , , , , , , ,
705.949377874153,320.353927966329,-385.595449907824,-508.432763974365,173.702657902565,560.6730379032,899.959632852989,881.003662698674,598.933720280877,-513.151652920242,545.772413890989,-32.6207609707474, , , , , , , , , , , , , , , , , , , , , , , , , , , , , , , , , , , , , , , , , , , , , , , , , , , , , , , , , , , , ,
709.028039517869,323.498157075304,-385.529882442565,-508.698674643757,177.989479363428,567.926615219894,908.60852236563,889.520113650724,604.827854927178,-516.263098296587,547.278960980217,-31.0158626836305, , , , , , , , , , , , , , , , , , , , , , , , , , , , , , , , , , , , , , , , , , , , , , , , , , , , , , , , , , , , ,
711.601971237737,326.086196528829,-385.515774708908,-508.795352215079,182.272500055534,574.781542345714,915.635707141542,897.497929814216,610.635065413572,-518.844083883284,548.558872973323,-29.7147890900392, , , , , , , , , , , , , , , , , , , , , , , , , , , , , , , , , , , , , , , , , , , , , , , , , , , , , , , , , , , , ,
713.649840707161,328.119079304629,-385.530761402531,-508.749595237653,186.514479914736,581.216489899683,923.100095043979,905.154744368473,616.265204687468,-520.884460005896,549.590301054846,-28.7058410489504, , , , , , , , , , , , , , , , , , , , , , , , , , , , , , , , , , , , , , , , , , , , , , , , , , , , , , , , , , , , ,
715.166414049019,329.618730953376,-385.547683095643,-508.463606298015,190.677521957816,587.214752297608,929.72571370411,912.39189181907,621.621759889936,-522.392572501198,550.357048572331,-27.9644760711331, , , , , , , , , , , , , , , , , , , , , , , , , , , , , , , , , , , , , , , , , , , , , , , , , , , , , , , , , , , , ,
716.164962879418,330.627321485433,-385.537641393985,-507.843457814075,194.723889803185,592.762702075641,934.71265844498,918.988752224671,626.606102495027,-523.396142182426,550.851302136701,-27.4551599542756, , , , , , , , , , , , , , , , , , , , , , , , , , , , , , , , , , , , , , , , , , , , , , , , , , , , , , , , , , , , ,
716.677843393602,331.205263686274,-385.472579707328,-506.903569954432,198.616919624585,597.848267969121,940.301210309715,924.672378728761,631.121576149412,-523.941553539939,551.075211550465,-27.1336580105264, , , , , , , , , , , , , , , , , , , , , , , , , , , , , , , , , , , , , , , , , , , , , , , , , , , , , , , , , , , , ,
716.754817558408,331.427838657582,-385.326978900826,-506.259649848299,202.322147537031,602.45972013432,945.118195392988,929.26317403263,635.077157654237,-524.091328107996,551.040898229617,-26.9495701216213, , , , , , , , , , , , , , , , , , , , , , , , , , , , , , , , , , , , , , , , , , , , , , , , , , , , , , , , , , , , ,
716.459011605329,331.380586445295,-385.078425160034,-505.133591706703,205.808650903214,606.58490781737,949.111666827987,933.032532074014,638.390456567088,-523.919799025313,550.768718382682,-26.8489193573694, , , , , , , , , , , , , , , , , , , , , , , , , , , , , , , , , , , , , , , , , , , , , , , , , , , , , , , , , , , , ,
715.860785852092,331.153753454528,-384.707032397563,-503.766184801167,210.05823745068,610.210937772371,952.230936742396,935.76692204838,640.989877929184,-523.507269653311,550.283909124827,-26.7766394715171, , , , , , , , , , , , , , , , , , , , , , , , , , , , , , , , , , , , , , , , , , , , , , , , , , , , , , , , , , , , ,
715.030115067299,330.836222718482,-384.193892348816,-502.247885325327,213.462568223298,613.32418107294,954.428113244079,937.230184748795,642.815874565333,-522.933168892891,549.612003708058,-26.6788348151664, , , , , , , , , , , , , , , , , , , , , , , , , , , , , , , , , , , , , , , , , , , , , , , , , , , , , , , , , , , , ,
714.028301244923,330.509457049517,-383.518844195405,-500.861037079981,216.818893535027,615.91047879176,955.659495024497,938.214977349208,643.82134490115,-522.268879147221,548.773572720164,-26.5046935729436, , , , , , , , , , , , , , , , , , , , , , , , , , , , , , , , , , , , , , , , , , , , , , , , , , , , , , , , , , , , ,
712.899954333037,330.242018366959,-382.657935966078,-498.989541031899,220.229114748749,617.955453024346,955.886735824412,937.613002964563,643.971351588149,-521.570986349999,547.778945149558,-26.2079587995591, , , , , , , , , , , , , , , , , , , , , , , , , , , , , , , , , , , , , , , , , , , , , , , , , , , , , , , , , , , , ,
711.666167709144,330.085143939959,-381.581023769184,-496.626310193406,222.511043601758,619.444877516858,955.077786415287,936.131251358071,643.242410572045,-520.875655824552,546.623595739164,-25.7479399146119, , , , , , , , , , , , , , , , , , , , , , , , , , , , , , , , , , , , , , , , , , , , , , , , , , , , , , , , , , , , ,
710.319677701068,330.069679034391,-380.249998666677,-494.094500150224,225.453686592277,620.36510747822,953.207681103707,933.413782285561,641.621616016978,-520.19467836773,545.284838183872,-25.0901598161424, , , , , , , , , , , , , , , , , , , , , , , , , , , , , , , , , , , , , , , , , , , , , , , , , , , , , , , , , , , , ,
708.822572056253,330.204478179597,-378.618093876656,-490.926674019592,227.138333930594,620.70361269719,950.259269112936,929.34730818656,639.105834410787,-519.513525117926,543.720332966455,-24.2068078485295, , , , , , , , , , , , , , , , , , , , , , , , , , , , , , , , , , , , , , , , , , , , , , , , , , , , , , , , , , , , ,
707.106867014272,330.476280710986,-376.630586303286,-487.805348372643,229.266683162748,620.500704072593,946.223998305908,924.123563474276,635.701140300444,-518.79157386263,541.868726658779,-23.0771527961495, , , , , , , , , , , , , , , , , , , , , , , , , , , , , , , , , , , , , , , , , , , , , , , , , , , , , , , , , , , , ,
705.07803274518,330.851034415572,-374.226998329607,-484.347404264431,230.515286481121,620.447528525644,941.102821583573,917.629623248947,631.422585154087,-517.964533580377,539.652515537394,-21.6879819570172, , , , , , , , , , , , , , , , , , , , , , , , , , , , , , , , , , , , , , , , , , , , , , , , , , , , , , , , , , , , ,
702.621286525039,331.276603655959,-371.344682869079,-479.543556514194,231.403736121206,619.607063577742,934.907214574742,909.898879695624,626.294293435784,-516.9489450905,536.982984697059,-20.0340396065595, , , , , , , , , , , , , , , , , , , , , , , , , , , , , , , , , , , , , , , , , , , , , , , , , , , , , , , , , , , , ,
699.610167283343,331.686692225316,-367.923475058026,-475.297964840366,232.087840101316,618.161413090638,927.66019954652,900.982969197309,620.349780040415,-515.648429754331,533.766821170685,-18.1183914163546, , , , , , , , , , , , , , , , , , , , , , , , , , , , , , , , , , , , , , , , , , , , , , , , , , , , , , , , , , , , ,
695.950247940897,332.005641653514,-363.944606287383,-470.511401083963,232.58352893638,616.319815190868,919.397198785882,890.951654116262,613.632299466099,-513.977944797206,529.94742711414,-15.9694823169342, , , , , , , , , , , , , , , , , , , , , , , , , , , , , , , , , , , , , , , , , , , , , , , , , , , , , , , , , , , , ,
692.33947687815,332.153590226867,-360.185886651283,-465.456500495732,232.907483753012,613.636405013982,910.166500847528,879.891991561275,607.996672797724,-512.246533552509,526.262681764716,-14.0161482122078, , , , , , , , , , , , , , , , , , , , , , , , , , , , , , , , , , , , , , , , , , , , , , , , , , , , , , , , , , , , ,
687.386807408103,332.051369612738,-355.335437795365,-459.863467536522,233.077918800893,610.301645980147,900.029115622076,867.906611783556,602.614189031778,-509.719088510421,521.361122601734,-11.6420340913131, , , , , , , , , , , , , , , , , , , , , , , , , , , , , , , , , , , , , , , , , , , , , , , , , , , , , , , , , , , , ,
682.545195400035,331.624533747296,-350.920661652739,-453.700990485758,233.11538854932,606.461037360268,889.057827262115,855.110973197862,594.999572414327,-507.084864573666,516.732928526387,-9.64806395272124, , , , , , , , , , , , , , , , , , , , , , , , , , , , , , , , , , , , , , , , , , , , , , , , , , , , , , , , , , , , ,
676.951723165096,330.80608653638,-346.145636628716,-447.416011917768,233.043408711819,602.011272355872,877.335330715966,841.629547582951,587.654179512814,-503.878904850739,511.548679896906,-7.66977504616789, , , , , , , , , , , , , , , , , , , , , , , , , , , , , , , , , , , , , , , , , , , , , , , , , , , , , , , , , , , , ,
670.632577788403,329.537781000295,-341.094796788107,-440.045659983751,232.888720869036,598.004265100481,864.951445605975,827.591004047978,580.009336030364,-500.08517939435,505.863687288255,-5.77850789390588, , , , , , , , , , , , , , , , , , , , , , , , , , , , , , , , , , , , , , , , , , , , , , , , , , , , , , , , , , , , ,
662.859252719988,327.770213630835,-335.089039089153,-432.88289118565,232.681079885651,592.64219845546,851.99952651502,813.122589704768,570.0491811651,-495.314733175412,498.974145904571,-3.65941272915892, , , , , , , , , , , , , , , , , , , , , , , , , , , , , , , , , , , , , , , , , , , , , , , , , , , , , , , , , , , , ,
652.483479863265,325.462199211986,-327.021280651279,-425.469931289117,232.452503034058,587.79902073178,838.572320191154,798.344042640941,559.822301446537,-488.972839537627,489.752380257272,-0.779540719646022, , , , , , , , , , , , , , , , , , , , , , , , , , , , , , , , , , , , , , , , , , , , , , , , , , , , , , , , , , , , ,
641.237203981925,322.579992765648,-318.657211216276,-417.263581490937,232.235992969934,581.726115044298,824.7576289158,783.361495105014,549.398502805849,-481.908598373787,479.947207599101,1.96139077468634, , , , , , , , , , , , , , , , , , , , , , , , , , , , , , , , , , , , , , , , , , , , , , , , , , , , , , , , , , , , ,
629.21641531444,319.096843289491,-310.119572024949,-409.017590918812,232.063818432291,575.649136195267,810.634180965493,768.261885412635,538.835149389452,-474.156629301966,469.667993669695,4.48863563227106, , , , , , , , , , , , , , , , , , , , , , , , , , , , , , , , , , , , , , , , , , , , , , , , , , , , , , , , , , , , ,
616.526236098688,314.993199753342,-301.533036345346,-400.30623458789,231.965493142524,570.469037593322,796.268071249427,753.108375592198,528.173532210955,-465.759717926016,459.029636222017,6.73008170399881, , , , , , , , , , , , , , , , , , , , , , , , , , , , , , , , , , , , , , , , , , , , , , , , , , , , , , , , , , , , ,
603.272829062945,310.257700265439,-293.015128797506,-391.308004578814,232.218204696444,564.268905128872,781.710064849629,737.937207702143,517.436221740338,-456.765264664193,448.143978930225,8.6212857339669, , , , , , , , , , , , , , , , , , , , , , , , , , , , , , , , , , , , , , , , , , , , , , , , , , , , , , , , , , , , ,
589.556072013461,304.888863728049,-284.667208285412,-382.067013501805,232.535804331658,557.798056805161,766.994009079878,722.756373076717,506.625768906799,-447.222467870756,437.111640149437,10.1108277213186, , , , , , , , , , , , , , , , , , , , , , , , , , , , , , , , , , , , , , , , , , , , , , , , , , , , , , , , , , , , ,
575.463679313948,298.897177906983,-276.566501406965,-372.476465618805,233.176981859108,551.723646289433,752.136569663423,707.546398101722,495.72505203535,-437.180428610466,426.015090360456,11.1653382500095, , , , , , , , , , , , , , , , , , , , , , , , , , , , , , , , , , , , , , , , , , , , , , , , , , , , , , , , , , , , ,
561.067204863495,292.307115619973,-268.760089243522,-362.570299365572,233.677289416391,545.876801437331,737.138432338687,692.263402132661,484.699431340183,-426.687160241735,414.913647053508,11.7735131882262, , , , , , , , , , , , , , , , , , , , , , , , , , , , , , , , , , , , , , , , , , , , , , , , , , , , , , , , , , , , ,
546.420116320537,285.158617972075,-261.261498348462,-352.392676081791,234.322752633486,539.477840082772,721.986946406477,676.844329986998,473.500654095343,-415.789367146307,403.8408073345,11.9485598118066, , , , , , , , , , , , , , , , , , , , , , , , , , , , , , , , , , , , , , , , , , , , , , , , , , , , , , , , , , , , ,
531.557976605657,277.507777167796,-254.05019943786,-341.996041890788,234.942745178184,532.597709467117,706.659947890237,661.213947848202,462.072194698238,-404.532876886727,392.804088021759,11.7287888649683, , , , , , , , , , , , , , , , , , , , , , , , , , , , , , , , , , , , , , , , , , , , , , , , , , , , , , , , , , , , ,
516.500694281029,269.426711397225,-247.073982883804,-330.927078449959,235.604109811774,526.630833821036,691.130261896149,645.29290073586,450.355487344362,-392.963702839128,381.787338582417,11.1763642567107, , , , , , , , , , , , , , , , , , , , , , , , , , , , , , , , , , , , , , , , , , , , , , , , , , , , , , , , , , , , ,
501.256706514998,261.002782052633,-240.253924462365,-319.79099464502,236.536398189058,519.94204624027,675.370243626298,629.005947318958,438.296374058834,-381.129744283817,370.755315488681,10.3744287951348, , , , , , , , , , , , , , , , , , , , , , , , , , , , , , , , , , , , , , , , , , , , , , , , , , , , , , , , , , , , ,
