-76.3742664599206,-228.419065111159,-152.044798651238,-13.1640737762943,-113.321772108775,-210.052036903344,-290.16454575052,-183.617392078138,-112.608382465068,152.396665785539,37.8352660956586,-190.231931881197,473,556,556,487,473,558,487,550,556,487,473,558,668,678,748,775,770,774,782,782,782,530,601,748,832,842,844,844,848,849,852,882,892,778,773,846,1083,1134,1185,1115,1104,1108,1125,1125,1113,1094,1080,1155,862,953,953,865,862,955,865,947,953,865,862,955,
-76.3742664599206,-228.419065111159,-152.044798651238,-13.1640737762943,-113.321772108775,-210.052036903344,-290.16454575052,-183.617392078138,-112.608382465068,152.396665785539,37.8352660956586,-190.231931881197,1340,1436,1435,1348,1340,1438,1348,1430,1435,1348,1340,1438,700,708,783,789,802,804,806,808,808,618,642,784,914,856,860,859,862,862,862,954,898,863,805,861,1165,1187,1203,1183,1174,1190,1195,1191,1190,1189,1168,1196,1738,1838,1837,1750,1738,1840,1750,1833,1837,1750,1738,1840,
-76.3742664599206,-228.419065111159,-152.044798651238,-13.1640737762943,-113.321772108775,-210.052036903344,-290.16454575052,-183.617392078138,-112.608382465068,152.396665785539,37.8352660956586,-190.231931881197,2226,2320,2320,2232,2226,2322,2232,2316,2320,2232,2226,2322,799,777,815,831,837,841,849,849,849,1380,668,815,936,946,952,935,941,946,954,981,954,952,949,952,1222,1228,1223,1279,1238,1237,1236,1235,1236,1258,1244,1231,2634,2722,2722,2635,2634,2724,2635,2718,2722,2635,2634,2724,
-76.3742664599206,-231.837267523539,-155.463001063617,-13.1640737762943,-113.321772108775,-210.052036903344,-290.16454575052,-183.617392078138,-112.608382465068,154.105766991729,39.5443673018485,-193.650134293577,3122,3210,3209,3122,3122,3212,3122,3206,3209,3122,3122,3212,1630,1622,1627,1556,1649,1654,1572,1662,1662,1440,1500,1628,960,985,1022,956,980,979,981,1008,980,970,1001,994,1971,2023,2078,2068,1989,1998,1923,2011,2000,1987,1979,2044,3530,3617,3616,3530,3530,3619,3530,3613,3616,3530,3530,3619,
-76.3742664599206,-237.3948403579,-161.020573897979,-13.1640737762943,-113.321772108775,-210.052036903344,-290.16454575052,-183.617392078138,-112.608382465068,156.88455340891,42.3231537190294,-199.207707127939,4012,4100,4098,4012,4012,4102,4012,4095,4098,4012,4012,4102,1655,1692,1663,1578,1689,1690,1601,1692,1690,1639,1517,1664,1025,1004,1730,1060,1014,1014,1007,1740,1016,1663,1651,999,2068,2078,2092,2166,2069,2074,1989,2075,2073,2074,2045,2082,4413,4502,4501,4414,4413,4504,4414,4497,4501,4414,4413,4504,
-76.3742664599206,-234.515223637142,-158.140957177221,-13.1640737762943,-113.321772108775,-224.150491938122,-300.516597440625,-183.617392078138,-112.608382465068,155.444745048531,40.8833453586503,-196.32809040718,4886,4976,4975,4888,4886,4978,4888,4970,4975,4888,4886,4978,2508,1721,1726,1655,1716,1721,1639,1729,1729,2264,1567,1727,1678,1733,1747,1661,1733,1735,1648,1749,1775,1748,1714,1731,2125,2119,2104,2207,2125,2122,2031,2120,2121,2151,2143,2115,5280,5369,5369,5282,5280,5371,5282,5363,5369,5282,5280,5371,
-76.3742664599206,-228.419065111159,-152.044798651238,-13.1640737762943,-113.321772108775,-232.354870342686,-305.031574875158,-187.348338209485,-112.608382465068,152.396665785539,37.8352660956586,-190.231931881197,5752,5842,5842,5754,5752,5844,5754,5836,5842,5754,5752,5844,2518,2540,2416,2490,2535,2544,2530,2544,2546,2315,2227,2512,1690,1748,1836,1682,1750,1751,1658,1839,1839,1837,1825,1748,2801,2909,2972,2801,2878,2891,2901,2893,2886,2871,2865,2931,6145,6234,6234,6147,6145,6236,6147,6228,6234,6147,6145,6236,
-76.3742664599206,-228.419065111159,-152.044798651238,-13.1640737762943,-113.321772108775,-233.561090195759,-303.765624268117,-205.508694785314,-112.608382465068,152.396665785539,37.8352660956586,-190.231931881197,6620,6709,6709,6622,6620,6711,6622,6703,6709,6622,6620,6711,2549,2577,2551,2508,2571,2576,2587,2572,2573,2427,2293,2552,1816,1837,1909,1820,1827,1832,1749,1867,1865,1855,1886,1837,2896,2963,2979,2900,2950,2962,2966,2957,2958,2959,2933,2968,7016,7104,7104,7017,7016,7106,7017,7098,7104,7017,7016,7106,
-76.3742664599206,-228.419065111159,-152.044798651238,-13.1640737762943,-113.321772108775,-230.726212757863,-297.006278847843,-210.610912802438,-120.752195236277,152.396665785539,37.8352660956586,-190.231931881197,7484,7578,7578,7490,7484,7580,7490,7572,7578,7490,7484,7580,3458,2607,2579,2520,2602,2611,3442,2611,2613,3154,3123,2611,1838,1877,2614,1936,1867,1866,1777,1895,1899,2548,2544,1880,2953,3003,2983,2965,3010,3010,3006,3003,3005,3035,3029,3000,7872,7972,7971,7884,7872,7974,7884,7967,7971,7884,7872,7974,
-76.3742664599206,-228.419065111159,-152.044798651238,-13.1640737762943,-113.321772108775,-222.44372029432,-290.16454575052,-219.537484768467,-126.960546909561,152.396665785539,37.8352660956586,-190.231931881197,8346,8445,8444,8358,8346,8448,8358,8441,8444,8358,8346,8448,3469,3430,3305,3350,3425,3434,3471,3430,3436,3183,3178,3306,1863,1896,2633,1959,1900,1900,1803,2648,2656,2632,2574,1886,3755,3803,3863,3677,3772,3779,3797,3785,3778,3761,3729,3825,8739,8838,8837,8752,8739,8841,8752,8835,8837,8752,8739,8841,
-76.3742664599206,-228.419065111159,-152.044798651238,-13.1640737762943,-113.321772108775,-210.052036903344,-290.16454575052,-216.502869217846,-134.203656222126,152.396665785539,37.8352660956586,-190.231931881197,9220,9454,9455,9228,9220,9456,9228,9451,9455,9228,9220,9456,3483,3474,3444,3367,3468,3470,3509,3467,3470,3253,3221,3446,1917,2617,2721,2558,2617,2622,2618,2722,2666,2722,2710,2615,3849,3857,3874,3759,3847,3856,3861,3851,3853,3854,3829,3865, , , , , , , , , , , , ,
-76.3742664599206,-228.419065111159,-152.044798651238,-13.1640737762943,-113.321772108775,-210.052036903344,-290.16454575052,-210.500570113389,-139.298311990811,152.396665785539,37.8352660956586,-190.231931881197, , , , , , , , , , , , ,4253,3497,3468,3382,3492,3501,4108,3497,3503,4053,4013,3501,2562,2632,2789,2575,2634,2636,2632,2750,2723,2740,2771,2632,3904,3899,3886,3829,3905,3902,3901,3897,3901,3925,3920,3896, , , , , , , , , , , , ,
-76.3742664599206,-228.419065111159,-152.044798651238,-13.1640737762943,-113.321772108775,-210.052036903344,-290.16454575052,-202.141742478062,-141.081539260836,152.396665785539,37.8352660956586,-190.231931881197, , , , , , , , , , , , ,4266,4287,4307,4327,4326,4324,4242,4319,4326,4079,4079,4292,2645,2722,3509,2650,2713,2721,2724,2779,2751,3443,3439,2721,4555,4688,4741,4735,4671,4661,4676,4671,4661,4651,4619,4709, , , , , , , , , , , , ,
-76.3742664599206,-228.419065111159,-152.044798651238,-13.1640737762943,-113.321772108775,-210.052036903344,-290.16454575052,-192.06113715377,-139.099194546003,152.396665785539,37.8352660956586,-190.231931881197, , , , , , , , , , , , ,4281,4358,4357,4342,4363,4352,4367,4355,4355,4920,4918,4336,2668,2762,3528,2753,2752,2755,2752,3514,2786,3523,3497,2766,4639,4744,4757,4814,4738,4739,4745,4739,4738,4739,4711,4749, , , , , , , , , , , , ,
-76.3742664599206,-228.419065111159,-152.044798651238,-13.1640737762943,-113.321772108775,-210.052036903344,-290.16454575052,-183.617392078138,-138.478386043855,152.396665785539,37.8352660956586,-190.231931881197, , , , , , , , , , , , ,5080,4386,5167,4367,4393,4391,5177,4386,4425,4978,5080,4391,2692,2782,3615,3421,2786,2789,2879,3522,3551,3617,3605,2771,4696,4783,4773,5597,4796,4784,4785,4784,4785,4815,4789,4781, , , , , , , , , , , , ,
-76.3742664599206,-228.419065111159,-152.044798651238,-13.1640737762943,-113.321772108775,-210.052036903344,-290.16454575052,-183.617392078138,-136.473325172771,152.396665785539,37.8352660956586,-190.231931881197, , , , , , , , , , , , ,5157,5162,5197,5191,5178,5177,5211,5194,5202,5019,5113,5168,2751,3512,3690,3428,3513,3514,3513,3614,3560,3634,3667,3510,5527,5556,5603,5687,5524,5525,5538,5539,5522,5386,5461,5575, , , , , , , , , , , , ,
-76.3742664599206,-228.419065111159,-152.044798651238,-13.1640737762943,-113.321772108775,-210.052036903344,-290.16454575052,-183.617392078138,-133.463800845111,152.396665785539,37.8352660956586,-190.231931881197, , , , , , , , , , , , ,5211,5223,5234,5210,5205,5235,6039,5223,5224,5882,5753,5197,3512,3525,4393,3510,3529,3528,3527,3642,3618,4327,4324,3527,5598,5610,5623,6469,5587,5605,5609,5606,5604,5605,5576,5615, , , , , , , , , , , , ,
-76.3742664599206,-228.419065111159,-152.044798651238,-13.1640737762943,-113.321772108775,-210.052036903344,-290.16454575052,-183.617392078138,-129.837378413839,152.396665785539,37.8352660956586,-190.231931881197, , , , , , , , , , , , ,6079,5261,6034,5243,6032,5991,6077,5261,5269,5957,5975,5235,3595,3616,4412,3635,3607,3612,3619,3672,3645,4411,4355,3616,5652,5651,5645,6556,5645,5649,5651,5649,5651,5691,5653,5650, , , , , , , , , , , , ,
-76.3742664599206,-228.419065111159,-152.044798651238,-13.1640737762943,-113.321772108775,-210.052036903344,-290.16454575052,-183.617392078138,-125.938385664421,152.396665785539,37.8352660956586,-190.231931881197, , , , , , , , , , , , ,6087,6060,6065,6062,6071,6071,6718,6060,5993,5994,6011,5979,3618,3656,4500,3677,3647,3645,3647,4402,3681,4501,4487,3660,6361,6418,6463,7085,6388,6390,6403,6404,6395,6251,6359,6438, , , , , , , , , , , , ,
-76.3742664599206,-228.419065111159,-152.044798651238,-13.1640737762943,-113.321772108775,-210.052036903344,-290.16454575052,-183.617392078138,-122.007558760653,152.396665785539,37.8352660956586,-190.231931881197, , , , , , , , , , , , ,6109,6090,6101,6074,6818,6909,6852,6089,6103,6024,6652,6071,3642,3677,4573,4394,3681,3680,3774,4413,4436,4519,4553,3666,6464,6474,6486,7124,6457,6469,6474,6470,6468,6470,6434,6480, , , , , , , , , , , , ,
-76.3742664599206,-228.419065111159,-152.044798651238,-13.1640737762943,-113.321772108775,-210.052036903344,-290.16454575052,-183.617392078138,-118.750785913184,152.396665785539,37.8352660956586,-190.231931881197, , , , , , , , , , , , ,6730,6127,6901,6109,6847,6938,6945,6127,6839,6654,6776,6903,3686,4396,5261,4411,4408,4398,4397,4503,4503,5195,5191,4394,6519,6515,6508,7155,6514,6518,6517,6515,6516,6557,6523,6516, , , , , , , , , , , , ,
-78.7660089095942,-228.419065111159,-149.653056201564,-13.1640737762943,-113.321772108775,-210.052036903344,-290.16454575052,-183.617392078138,-116.305324739742,153.592537010376,35.443523645985,-189.03606065636, , , , , , , , , , , , ,6785,6895,6934,6925,7779,7780,7747,6927,6913,6712,6847,6935,4307,4411,5280,4484,4425,4413,4413,4531,4530,5280,5221,4411,7337,7290,7339,8202,7165,7260,7278,7277,7266,7121,7227,7308, , , , , , , , , , , , ,
-82.6772346538064,-228.419065111159,-145.741830457352,-13.1640737762943,-113.321772108775,-210.052036903344,-290.16454575052,-183.617392078138,-114.545445873843,155.548149882482,31.5322979017728,-187.080447784254, , , , , , , , , , , , ,6893,6960,6968,6943,7807,7807,7813,6959,6938,6817,7548,6970,4390,4501,5368,4562,4504,4496,4503,4563,4565,5368,5366,4501,7411,7344,7356,8292,7241,7340,7345,7342,7340,7341,7316,7347, , , , , , , , , , , , ,
-88.0570801014663,-228.419065111159,-140.361985009692,-13.1640737762943,-113.321772108775,-210.052036903344,-290.16454575052,-183.617392078138,-113.468503044479,158.238072606312,26.1524524541129,-184.390525060424, , , , , , , , , , , , ,7815,6994,7770,6977,8643,8643,8627,6994,7804,7586,7579,7676,4412,4542,5438,4688,4544,4530,4531,5298,5305,5386,5415,4545,7467,7385,7372,9061,7296,7387,7387,7386,7386,7425,7391,7382, , , , , , , , , , , , ,
-91.5354455479352,-228.419065111159,-136.883619563223,-13.1640737762943,-113.321772108775,-210.052036903344,-290.16454575052,-183.617392078138,-113.627802167644,159.977255329547,22.674087007644,-182.65134233719, , , , , , , , , , , , ,7826,7764,7800,7795,8701,8675,8681,7796,7830,7745,7711,7698,4437,4562,6125,5262,4579,4566,4661,5370,5312,6060,6055,4551,8111,8159,8223, ,8125,8132,8148,8145,8133,7989,8091,8178, , , , , , , , , , , , ,
-94.992623423564,-228.419065111159,-133.426441687594,-13.1640737762943,-113.321772108775,-210.052036903344,-290.16454575052,-183.617392078138,-114.801120339897,161.705844267361,19.2169091320152,-180.922753399375, , , , , , , , , , , , ,7836,7829,7837,7810, , , ,7827,7871,7781,8378,7807,4483,5265,6144,5280,5263,5265,5265,5397,5370,6144,6116,5263,8198,8212,8226, ,8195,8209,8214,8209,8207,8209,8188,8216, , , , , , , , , , , , ,
-97.5020600878602,-228.419065111159,-130.917005023298,-13.1640737762943,-113.321772108775,-210.052036903344,-290.16454575052,-183.617392078138,-116.915944814306,162.960562599509,16.707472467719,-179.668035067227, , , , , , , , , , , , ,8378,7863,8636,7845, , , ,7863,8668,8390,8419,8544,5262,5280,6233,5350,5276,5275,5278,5429,5395,6234,6232,5280,8260,8252,8228, ,8260,8256,8256,8254,8255,8293,8287,8248, , , , , , , , , , , , ,
-103.01854069678,-228.419065111159,-125.400524414378,-13.1640737762943,-113.321772108775,-210.052036903344,-290.16454575052,-183.617392078138,-117.401158372716,165.718802903969,11.1909918587987,-176.909794762767, , , , , , , , , , , , ,8474,8637,8665,8663, , , ,8665,8689,8424,8445,8580,5346,5368,6305,5390,5357,5362,5369,6137,5433,6251,6282,5368,8889,9028,9076, ,8992,8999,9018,9014,8997,8855,8953,9044, , , , , , , , , , , , ,
-103.825923762084,-228.419065111159,-124.593141349074,-13.1640737762943,-94.5128560583688,-210.052036903344,-290.16454575052,-183.617392078138,-119.854410018352,166.122494436621,10.3836087934954,-176.506103230115, , , , , , , , , , , , ,8605,8698,8703,8680, , , ,8693,8735,8489, ,8675,5369,5408,6996,5493,5397,5395,5397,6145,6183,6930,6924,5411,8977,9082,9094, ,9066,9075,9080,9076,9069,9074,9044,9083, , , , , , , , , , , , ,
-105.503807410218,-228.419065111159,-122.91525770094,-13.1640737762943,-56.5732501503726,-210.052036903344,-290.16454575052,-183.617392078138,-123.124890411161,166.961436260688,8.70572514536114,-175.667161406048, , , , , , , , , , , , , ,8736, ,8713, , , ,8732, , , , ,5393,5426,7014,5553,5431,5432,5528,6235,6204,7012,6955,5417,9032,9123,9112, ,9120,9119,9118,9118,9114,9161,9127,9118, , , , , , , , , , , , ,
-103.91943243502,-228.419065111159,-124.499632676138,-13.1640737762943,-34.5593923251592,-210.052036903344,-290.16454575052,-183.617392078138,-126.672353688908,166.169248773089,10.2901001205592,-176.459348893647, , , , , , , , , , , , , , , , , , , , , , , , ,5463,6130,7103,6127,6129,6132,6130,6262,6235,7104,7098,6129, , , , , , , , , , , , , , , , , , , , , , , , ,
-103.274902287953,-228.419065111159,-125.144162823205,-13.1640737762943,6.30205759334703,-184.555185225644,-290.16454575052,-183.617392078138,-130.294269591137,165.846983699556,10.934630267626,-176.781613967181, , , , , , , , , , , , , , , , , , , , , , , , ,6126,6144,7171,6137,6143,6145,6145,6289,6260,7121,7150,6146, , , , , , , , , , , , , , , , , , , , , , , , ,
-98.9441999224064,-228.419065111159,-129.474865188752,-13.1640737762943,32.4233940395813,-133.249710475417,-290.16454575052,-183.617392078138,-130.851622628849,163.681632516782,15.2653326331728,-178.946965149954, , , , , , , , , , , , , , , , , , , , , , , , ,6212,6234,7863,6216,6222,6229,6235,7007,6293,7797,7785,6235, , , , , , , , , , , , , , , , , , , , , , , , ,
-97.8132031317578,-206.95382859083,-109.140625459071,-13.1640737762943,77.2317164203891,-102.605558148894,-263.82324413804,-183.617392078138,-128.318221907784,152.383515861293,5.66371116365691,-158.047227024949, , , , , , , , , , , , , , , , , , , , , , , , ,6234,6273,7881,6237,6260,6262,6261,7013,7045,7880,7824,6278, , , , , , , , , , , , , , , , , , , , , , , , ,
-90.9757348755957,-184.427500295298,-93.4517654197016,-13.1640737762943,107.864603611381,-47.4546627443488,-210.971276493129,-183.617392078138,-124.753532499011,137.701617585446,1.23801527205306,-138.939632857498, , , , , , , , , , , , , , , , , , , , , , , , ,6258,6292,7970,6399,6294,6298,6388,7105,7105,7971,7959,6283, , , , , , , , , , , , , , , , , , , , , , , , ,
-84.7487770569236,-140.168752660031,-55.419975603107,-13.1640737762943,157.111531050225,-10.8272831222218,-179.752752272822,-183.617392078138,-122.458311532709,112.458764858477,-14.6644007269082,-97.7943641315678, , , , , , , , , , , , , , , , , , , , , , , , ,6318,7000,8044,6999,6909,7001,7000,7132,7131,7989,8019,6998, , , , , , , , , , , , , , , , , , , , , , , , ,
-77.9370862867043,-115.064858854617,-37.1277725679118,0.133456802673416,192.125394162639,48.7268871097247,-123.776631809169,-183.617392078138,-117.484188917259,96.5009725706601,-20.4046568593961,-76.096315711263, , , , , , , , , , , , , , , , , , , , , , , , ,7075,7013,8730,7016,6925,7015,7014,7161,7165,8665,8652,7014, , , , , , , , , , , , , , , , , , , , , , , , ,
-76.3742664599206,-88.289997556903,-11.9157310969819,26.9297073182304,245.756514858071,91.7461513050985,-87.2539621232822,-183.617392078138,-112.608382465068,82.3321320084115,-32.2292676814692,-50.1028643269412, , , , , , , , , , , , , , , , , , , , , , , , ,7158,7103,8747,7017,7002,7097,7105,7873,7907,8751,8689,7103, , , , , , , , , , , , , , , , , , , , , , , , ,
-76.3742664599206,-40.2753816843493,36.0988847755718,43.7899957342726,284.531539061685,137.979431850309,-40.2185846397226,-183.617392078138,-112.608382465068,58.3248240721346,-56.2365756177461,-2.0882484543875, , , , , , , , , , , , , , , , , , , , , , , , ,7181,7142,8836,7085,7040,7131,7132,7882,7915,8838,8826,7147, , , , , , , , , , , , , , , , , , , , , , , , ,
-76.3742664599206,-9.86778909420806,66.5064773657131,73.2640519035081,335.059246984351,187.367771533708,1.81429824809948,-183.617392078138,-112.608382465068,43.121027777064,-71.4403719128167,28.3193441357537, , , , , , , , , , , , , , , , , , , , , , , , ,7205,7161,8901,7864,7076,7166,7258,7973,7973,8855,8887,7151, , , , , , , , , , , , , , , , , , , , , , , , ,
-76.3742664599206,41.6902953125019,118.064561772423,94.4613536157672,383.556752749587,239.801897297237,46.6156027503575,-183.617392078138,-112.608382465068,17.341985573709,-97.2194141161717,79.8774285424637, , , , , , , , , , , , , , , , , , , , , , , , ,7262,7867, ,7954,7855,7868,7867,8001,7999, , ,7865, , , , , , , , , , , , , , , , , , , , , , , , ,
-76.3742664599206,76.6759639404666,153.050230400388,125.113403225109,426.051708240387,295.127089654995,94.1626335954475,-183.617392078138,-112.608382465068,-0.150848740273346,-114.712248430154,114.863097170428, , , , , , , , , , , , , , , , , , , , , , , , ,7867,7880, ,8157,7882,7881,7881,8030,8034, , ,7880, , , , , , , , , , , , , , , , , , , , , , , , ,
-76.3742664599206,132.544957726254,208.919224186175,153.667311976754,487.145156950887,353.150796579396,144.412064153013,-183.617392078138,-112.608382465068,-28.0853456331672,-142.646745323048,170.732090956216, , , , , , , , , , , , , , , , , , , , , , , , ,7950,7971, ,8733,7962,7966,7973,8740,8771, , ,7971, , , , , , , , , , , , , , , , , , , , , , , , ,
-76.3742664599206,172.792855123105,249.167121583026,190.962070396932,530.655233256135,413.653422537871,197.304226030616,-183.617392078138,-112.608382465068,-48.2092943315924,-162.770694021473,210.979988353066, , , , , , , , , , , , , , , , , , , , , , , , ,7973,8011, ,8750,8001,8000,8001,8747,8836, , ,8014, , , , , , , , , , , , , , , , , , , , , , , , ,
-76.3742664599206,233.614410270774,309.988676730695,226.857737161431,593.143314101554,476.402542391777,252.769507629734,-183.617392078138,-112.608382465068,-78.6200719054269,-193.181471595308,271.801543500736, , , , , , , , , , , , , , , , , , , , , , , , ,7997,8031, ,8821,8115,8034,8128,8840,8862, , ,8020, , , , , , , , , , , , , , , , , , , , , , , , ,
-76.3742664599206,279.483589011487,355.857855471408,264.059524734002,636.666944265822,541.170508577141,310.737224492987,-173.533397445713,-112.608382465068,-101.554661275784,-216.116060965664,317.670722241449, , , , , , , , , , , , , , , , , , , , , , , , ,8057,8738, ,8938,8722,8735,8735,8868,8898, , ,8732, , , , , , , , , , , , , , , , , , , , , , , , ,
-86.5108261236854,345.519442911472,432.030269035158,307.660214508196,699.786539835928,607.75500294147,371.147116019577,-156.15103615599,-112.608382465068,-129.504308393894,-259.270547579422,388.774855973317, , , , , , , , , , , , , , , , , , , , , , , , ,8619,8753, ,9031,8749,8748,8748,8897, , , ,8748, , , , , , , , , , , , , , , , , , , , , , , , ,
-103.847273172809,396.934294756126,500.781567928936,353.079310078991,742.746129497595,676.001515099557,433.963312344147,-138.622705715953,-112.608382465068,-146.543510791659,-302.314420550872,448.857931342532, , , , , , , , , , , , , , , , , , , , , , , , ,8727,8842, , ,8829,8834,8840, , , , ,8837, , , , , , , , , , , , , , , , , , , , , , , , ,
-120.879800525301,462.967528338417,583.847328863718,400.18208623445,793.04558517781,745.826054703817,499.190225432973,-120.795001703412,-112.608382465068,-171.043863906558,-352.363564694509,523.407428601068, , , , , , , , , , , , , , , , , , , , , , , , ,8750,8882, , ,8868,8867,8868, , , , ,8882, , , , , , , , , , , , , , , , , , , , , , , , ,
-140.076258998357,524.479541241784,664.555800240142,448.746902792752,835.484326784773,817.235759588535,566.889401481878,-102.434765259879,-112.608382465068,-192.201641121714,-402.31602961925,594.517670740964, , , , , , , , , , , , , , , , , , , , , , , , ,8774,8902, , ,8987,8902,8995, , , , ,8887, , , , , , , , , , , , , , , , , , , , , , , , ,
-162.079797938548,583.193726200351,745.273524138899,498.466346039394,877.89707754304,890.344621053363,637.195993822934,-83.2234595998832,-107.445159782203,-210.556964130902,-453.676661038723,664.233625169626, , , , , , , , , , , , , , , , , , , , , , , , ,8832, , , , , , , , , , , , , , , , , , , , , , , , , , , , , , , , , , , ,
-182.928545744622,660.869061246137,843.797606990759,548.948831259319,920.547112707799,965.38145331669,710.333246144641,-62.7529411281857,-101.625698834149,-238.970257750758,-513.36307636769,752.333334118449, , , , , , , , , , , , , , , , , , , , , , , , , , , , , , , , , , , , , , , , , , , , , , , , , , , , , , , , , , , , ,
-203.287734034228,723.522026481252,926.809760515481,599.720206061398,963.757032039205,1042.68754517591,786.623271875063,-40.5229645998714,-94.4982307043681,-260.117146223512,-565.048747274855,825.165893498368, , , , , , , , , , , , , , , , , , , , , , , , , , , , , , , , , , , , , , , , , , , , , , , , , , , , , , , , , , , , ,
-222.740637325374,804.839174128505,1027.57981145388,650.225139082741,1007.8805961834,1122.70211225975,866.492499997114,-8.70805481981645,-85.4198360263989,-291.049268401565,-625.160224389627,916.209492791193, , , , , , , , , , , , , , , , , , , , , , , , , , , , , , , , , , , , , , , , , , , , , , , , , , , , , , , , , , , , ,
-248.458594191588,870.943836325635,1119.40243051722,690.299613781802,1053.26548752413,1205.93460621804,950.470407740552,36.1752079085741,-74.7804887626289,-311.242621067024,-683.930512354405,995.173133421431, , , , , , , , , , , , , , , , , , , , , , , , , , , , , , , , , , , , , , , , , , , , , , , , , , , , , , , , , , , , ,
-266.053059004968,955.85336352342,1221.90642252839,737.243193364027,1100.20842962524,1292.92399724293,1039.18052336934,84.7679712669632,-63.8252103897027,-344.900152259226,-743.979740766678,1088.87989302591, , , , , , , , , , , , , , , , , , , , , , , , , , , , , , , , , , , , , , , , , , , , , , , , , , , , , , , , , , , , ,
-280.543955727691,1025.55048884628,1306.09444457397,771.26457395053,1148.9049448129,1384.18623356618,1133.32310821472,137.821741770367,-45.7322917696173,-372.503266559293,-793.319200150829,1165.82246671012, , , , , , , , , , , , , , , , , , , , , , , , , , , , , , , , , , , , , , , , , , , , , , , , , , , , , , , , , , , , ,
-295.944555572873,1114.76166554434,1410.70622111721,808.557959261849,1199.39678952113,1480.15215697074,1233.64938862944,196.10870427019,-23.1807625670222,-409.408554985734,-853.325388345044,1262.73394333078, , , , , , , , , , , , , , , , , , , , , , , , , , , , , , , , , , , , , , , , , , , , , , , , , , , , , , , , , , , , ,
-306.583773114957,1189.03704256632,1495.62081568128,836.279281372484,1251.52075817625,1581.09917023627,1340.92768216767,260.410231810981,4.39416592306358,-441.226634725683,-901.102294398119,1342.3289291238, , , , , , , , , , , , , , , , , , , , , , , , , , , , , , , , , , , , , , , , , , , , , , , , , , , , , , , , , , , , ,
-297.945142492864,1283.23453858783,1581.17968108069,854.988764112131,1304.86297771527,1687.08079936502,1455.90221311039,331.498608954116,37.4998414044183,-492.644698047482,-939.562411786778,1432.20710983426, , , , , , , , , , , , , , , , , , , , , , , , , , , , , , , , , , , , , , , , , , , , , , , , , , , , , , , , , , , , ,
-285.410829064072,1364.73388962235,1650.14471868642,868.134318592204,1358.72289024711,1797.85884621755,1579.24581730017,409.320920805608,70.3672710683933,-539.661530279138,-967.777773875246,1507.43930415439, , , , , , , , , , , , , , , , , , , , , , , , , , , , , , , , , , , , , , , , , , , , , , , , , , , , , , , , , , , , ,
-274.215144139165,1449.36128687968,1723.57643101885,872.515566541767,1412.09081994212,1912.84305834315,1711.50810921769,482.886986623287,115.754264595029,-587.573071370259,-998.895787579006,1586.46885894927, , , , , , , , , , , , , , , , , , , , , , , , , , , , , , , , , , , , , , , , , , , , , , , , , , , , , , , , , , , , ,
-245.187318726889,1556.97179065689,1802.15910938378,879.002206730579,1463.64246233403,2031.0432346958,1853.06105503708,579.469201997652,167.701641088415,-655.892235964999,-1023.67321405533,1679.56545002033, , , , , , , , , , , , , , , , , , , , , , , , , , , , , , , , , , , , , , , , , , , , , , , , , , , , , , , , , , , , ,
-216.366419712475,1651.13651467032,1867.5029343828,866.311927370833,1511.75295679121,2151.03851857122,2004.04426166872,685.312768542636,221.046270213308,-717.385047478924,-1041.93467704764,1759.31972452656, , , , , , , , , , , , , , , , , , , , , , , , , , , , , , , , , , , , , , , , , , , , , , , , , , , , , , , , , , , , ,
-174.755381737393,1769.72353160278,1944.47891334017,856.885754383004,1554.53244799548,2271.43357969242,2164.31260873154,800.589236688497,287.289513314738,-797.484074932691,-1059.61714753878,1857.10122247147, , , , , , , , , , , , , , , , , , , , , , , , , , , , , , , , , , , , , , , , , , , , , , , , , , , , , , , , , , , , ,
-128.466309625366,1874.67553064549,2003.14184027085,825.345724218056,1589.88416915928,2408.29238688552,2333.38907260501,925.214530919445,355.33577981098,-873.104610510061,-1065.80407494811,1938.90868545817, , , , , , , , , , , , , , , , , , , , , , , , , , , , , , , , , , , , , , , , , , , , , , , , , , , , , , , , , , , , ,
-84.152741968846,2004.66661578691,2088.81935775576,797.616400125488,1628.70468313631,2539.64775026786,2510.42570128015,1058.80501664787,429.486302312094,-960.256936909032,-1086.4860498623,2046.74298677133, , , , , , , , , , , , , , , , , , , , , , , , , , , , , , , , , , , , , , , , , , , , , , , , , , , , , , , , , , , , ,
-44.29597260766,2119.73104451371,2164.02701712137,746.900780419499,1664.05126611731,2662.9859994741,2694.17566745688,1200.63979406904,509.810929356588,-1037.71753595302,-1104.16149486451,2141.87903081754, , , , , , , , , , , , , , , , , , , , , , , , , , , , , , , , , , , , , , , , , , , , , , , , , , , , , , , , , , , , ,
12.8296183699414,2258.63683530034,2245.8072169304,689.631697269873,1678.24808438239,2775.57675194249,2895.60140537546,1349.63216955505,595.452401643345,-1135.73322683514,-1116.48879928023,2252.22202611537, , , , , , , , , , , , , , , , , , , , , , , , , , , , , , , , , , , , , , , , , , , , , , , , , , , , , , , , , , , , ,
70.9850713153264,2380.64383595981,2309.65876464448,633.036048166167,1669.64119832869,2874.58214168677,3106.31088197507,1502.92899827683,685.28189407604,-1225.81445363757,-1119.33684666458,2345.15130030215, , , , , , , , , , , , , , , , , , , , , , , , , , , , , , , , , , , , , , , , , , , , , , , , , , , , , , , , , , , , ,
128.882609054071,2503.09712130643,2374.21451225236,557.262723252039,1658.10657263615,2957.18612117257,3316.39040212757,1657.43737871888,777.905936036082,-1315.98986518025,-1122.66595159914,2438.6558167794, , , , , , , , , , , , , , , , , , , , , , , , , , , , , , , , , , , , , , , , , , , , , , , , , , , , , , , , , , , , ,
185.228340835588,2626.09871353616,2440.87037270057,477.97791778799,1627.69968344913,3004.81077373227,3523.37099453656,1818.18239727964,871.684825844647,-1405.66352718587,-1127.82101593249,2533.48454311837, , , , , , , , , , , , , , , , , , , , , , , , , , , , , , , , , , , , , , , , , , , , , , , , , , , , , , , , , , , , ,
238.759598004393,2743.24168376167,2504.48208575728,391.394742965885,1577.47411039473,3038.93070975347,3722.80031960833,1977.71794511817,964.762918234578,-1491.00064088303,-1132.86124387644,2623.86188475948, , , , , , , , , , , , , , , , , , , , , , , , , , , , , , , , , , , , , , , , , , , , , , , , , , , , , , , , , , , , ,
288.278423888473,2853.47423339445,2565.19580950598,314.286631560299,1507.15070014211,3056.26375408458,3900.23687780903,2133.14324264147,1054.45140880725,-1570.87632864146,-1138.45869280875,2709.33502145022, , , , , , , , , , , , , , , , , , , , , , , , , , , , , , , , , , , , , , , , , , , , , , , , , , , , , , , , , , , , ,
332.679720810171,2953.59421479301,2620.91449398284,224.390121534188,1402.05372388825,3049.07259438584,4080.13330499114,2281.32918074742,1139.91880513997,-1643.13696780159,-1144.11738658633,2787.25435438792, , , , , , , , , , , , , , , , , , , , , , , , , , , , , , , , , , , , , , , , , , , , , , , , , , , , , , , , , , , , ,
370.973162743453,3040.26745899679,2669.29429625334,136.25478747671,1290.10457880439,3016.76723090711,4244.32787693626,2418.99648139495,1218.29844139017,-1705.62031087012,-1149.16056675494,2854.78087762507, , , , , , , , , , , , , , , , , , , , , , , , , , , , , , , , , , , , , , , , , , , , , , , , , , , , , , , , , , , , ,
402.298765593961,3110.16882085483,2707.87005526086,52.3566634267066,1156.86920955215,2959.40072546871,4389.46542327517,2542.80692316083,1285.67350007371,-1756.23379322439,-1152.78564483345,2909.01943805785, , , , , , , , , , , , , , , , , , , , , , , , , , , , , , , , , , , , , , , , , , , , , , , , , , , , , , , , , , , , ,
425.9368231886,3160.13831845504,2734.20149526644,-24.7945298473836,1012.41752603203,2877.63973677139,4512.17837972462,2645.28399570205,1340.91538348091,-1793.03757082182,-1154.13233603892,2947.16990686074, , , , , , , , , , , , , , , , , , , , , , , , , , , , , , , , , , , , , , , , , , , , , , , , , , , , , , , , , , , , ,
441.313580454532,3187.34326089642,2746.02968044189,-92.7664784415212,871.416110809903,2764.94730569578,4609.13910793992,2729.4699479404,1383.56236546568,-1814.32842067548,-1152.35804999368,2966.68647066916, , , , , , , , , , , , , , , , , , , , , , , , , , , , , , , , , , , , , , , , , , , , , , , , , , , , , , , , , , , , ,
448.004387304334,3189.43584649384,2741.43145918951,-149.324545668879,717.273746183172,2618.37862420788,4677.11729360549,2791.63234581531,1412.97435507284,-1818.72011689909,-1146.71353594259,2965.43365284168, , , , , , , , , , , , , , , , , , , , , , , , , , , , , , , , , , , , , , , , , , , , , , , , , , , , , , , , , , , , ,
445.736107168254,3164.69522095707,2718.95911378882,-192.552889364125,571.483821521211,2449.29255179265,4713.04742637231,2828.04081910474,1426.04153749223,-1805.21566406266,-1136.61150331028,2941.82716737294, , , , , , , , , , , , , , , , , , , , , , , , , , , , , , , , , , , , , , , , , , , , , , , , , , , , , , , , , , , , ,
434.390256800791,3112.14353384262,2677.75327704183,-220.967020101989,422.415989830641,2286.47935094458,4714.11108011818,2832.25298020054,1421.54771733088,-1773.2668953217,-1121.68151012052,2894.94840544222, , , , , , , , , , , , , , , , , , , , , , , , , , , , , , , , , , , , , , , , , , , , , , , , , , , , , , , , , , , , ,
414.007774980709,3031.62708544783,2617.61931046712,-233.608397439817,285.818663548054,2087.2429984068,4677.83705063667,2806.89144904036,1399.49098759134,-1722.81743021427,-1101.80576774321,2824.62319795748, , , , , , , , , , , , , , , , , , , , , , , , , , , , , , , , , , , , , , , , , , , , , , , , , , , , , , , , , , , , ,
384.795536534254,2923.85603864686,2539.06050211261,-230.112819724505,154.288227746416,1905.39073627749,4602.21952470244,2748.3588876655,1359.58945909274,-1654.32578759056,-1077.13248278918,2731.45827037974, , , , , , , , , , , , , , , , , , , , , , , , , , , , , , , , , , , , , , , , , , , , , , , , , , , , , , , , , , , , ,
347.133857144478,2790.39910172436,2443.26524457989,-210.74647061065,37.250466977612,1696.74191875404,4485.85085246612,2664.94316328062,1302.32540654407,-1568.76647943442,-1048.0656937177,2616.83217315213, , , , , , , , , , , , , , , , , , , , , , , , , , , , , , , , , , , , , , , , , , , , , , , , , , , , , , , , , , , , ,
301.583403719913,2633.63275219923,2332.04934847932,-176.406111120088,-69.0320747211058,1497.4710572099,4323.66594858929,2555.22229580001,1228.69119521499,-1467.60807795957,-1015.2329723797,2482.84105033928, , , , , , , , , , , , , , , , , , , , , , , , , , , , , , , , , , , , , , , , , , , , , , , , , , , , , , , , , , , , ,
248.889283350247,2456.64767053141,2207.75838718116,-128.582617401523,-148.868209952012,1279.07897764764,4104.57358333224,2414.94893729004,1140.16954348074,-1352.76847694083,-979.434551915456,2332.20302885628, , , , , , , , , , , , , , , , , , , , , , , , , , , , , , , , , , , , , , , , , , , , , , , , , , , , , , , , , , , , ,
189.979786116818,2281.98143337002,2092.00164725321,-69.289622157466,-227.485819763888,1061.70820575042,3850.61652149147,2246.88018850741,1038.69209786058,-1235.98060974342,-951.010930568194,2186.99154031162, , , , , , , , , , , , , , , , , , , , , , , , , , , , , , , , , , , , , , , , , , , , , , , , , , , , , , , , , , , , ,
125.957395051148,2096.99354569311,1971.03615064197,-0.96137145910402,-292.981236716445,847.108904847914,3571.05981152456,2063.04081668786,926.576920872116,-1111.47547037213,-922.539377795409,2034.01484816754, , , , , , , , , , , , , , , , , , , , , , , , , , , , , , , , , , , , , , , , , , , , , , , , , , , , , , , , , , , , ,
58.0802197807275,1903.83403443654,1845.75381465581,73.6739530767955,-346.676255230953,636.802744867723,3244.35520936085,1853.27105439617,806.446585467274,-980.957127108633,-893.836797437541,1874.79392454618, , , , , , , , , , , , , , , , , , , , , , , , , , , , , , , , , , , , , , , , , , , , , , , , , , , , , , , , , , , , ,
-12.2671542231351,1690.22266358715,1702.48981781028,151.737371338874,-390.246157932816,432.143239545934,2913.95498701917,1631.42175830865,681.12976578097,-838.977754682007,-857.37848601671,1696.35624069872, , , , , , , , , , , , , , , , , , , , , , , , , , , , , , , , , , , , , , , , , , , , , , , , , , , , , , , , , , , , ,
-83.6133887038424,1489.2785628633,1572.89195156714,230.349291889431,-425.564713922895,234.37748740609,2545.9703380266,1402.48635958448,553.550470026869,-702.832587079728,-828.252670135491,1531.08525721522, , , , , , , , , , , , , , , , , , , , , , , , , , , , , , , , , , , , , , , , , , , , , , , , , , , , , , , , , , , , ,
-154.449536622998,1296.19478632369,1450.64432294669,306.776677060142,-454.551392627966,44.698846970565,2178.43452059636,1171.5740559293,426.610288541928,-570.872624850347,-802.546929784844,1373.41955463519, , , , , , , , , , , , , , , , , , , , , , , , , , , , , , , , , , , , , , , , , , , , , , , , , , , , , , , , , , , , ,
-223.28524328278,1109.83484423163,1333.12008751441,378.567251864583,-479.032515948463,-135.71799544975,1795.25951904196,943.700116319362,303.070093499659,-443.274800474425,-778.202665398594,1221.47746587302, , , , , , , , , , , , , , , , , , , , , , , , , , , , , , , , , , , , , , , , , , , , , , , , , , , , , , , , , , , , ,
-288.70843661844,919.542240411878,1208.25067703032,443.661815556078,-500.625884848837,-305.704892545559,1412.11756358938,723.577238667532,185.438354129443,-315.41690189672,-748.479556824379,1063.8964587211, , , , , , , , , , , , , , , , , , , , , , , , , , , , , , , , , , , , , , , , , , , , , , , , , , , , , , , , , , , , ,
-349.443941122199,751.954514057072,1101.39845517927,500.477490473399,-520.655328201624,-464.112240534875,1037.74157941374,515.421951395648,75.8734259720892,-201.255286467437,-725.421198150736,926.676484618173, , , , , , , , , , , , , , , , , , , , , , , , , , , , , , , , , , , , , , , , , , , , , , , , , , , , , , , , , , , , ,
-404.405981167541,600.569107354256,1004.9750885218,547.957113674624,-540.098117375874,-609.842126020918,681.175472131267,322.790011658188,-23.8933614076232,-98.0815630933576,-704.690534844669,802.772097938028, , , , , , , , , , , , , , , , , , , , , , , , , , , , , , , , , , , , , , , , , , , , , , , , , , , , , , , , , , , , ,
-452.739869314329,461.784243995047,914.524113309376,585.58271676834,-559.56488165933,-741.896357776385,348.729798812914,148.452937571375,-112.608382465068,-4.52218734035918,-683.631991311853,688.154178652213, , , , , , , , , , , , , , , , , , , , , , , , , , , , , , , , , , , , , , , , , , , , , , , , , , , , , , , , , , , , ,
-493.849287152508,327.881527761953,821.730814914462,613.353905342279,-579.308983520086,-859.431407600856,45.6668259853042,-5.67575357946191,-189.516909629762,82.9838796952775,-657.790051033485,574.806171338208, , , , , , , , , , , , , , , , , , , , , , , , , , , , , , , , , , , , , , , , , , , , , , , , , , , , , , , , , , , , ,
-527.407146199377,217.227841152654,744.634987352032,631.734652421732,-599.260420805382,-961.812084902882,-223.993440587783,-138.560806950814,-254.354273432734,155.089652523361,-636.021066775704,480.931414252344, , , , , , , , , , , , , , , , , , , , , , , , , , , , , , , , , , , , , , , , , , , , , , , , , , , , , , , , , , , , ,
-553.349690542848,114.230343082548,667.580033625397,641.574266953828,-619.078208058203,-1048.65672638548,-457.586936772877,-250.013369783889,-307.309233380574,219.55967373015,-610.464862084122,390.905188353974, , , , , , , , , , , , , , , , , , , , , , , , , , , , , , , , , , , , , , , , , , , , , , , , , , , , , , , , , , , , ,
-582.051115875762,25.1838439324142,607.234959808177,655.640331848985,-639.061904488308,-1119.86843660058,-653.835263853084,-340.613133373233,-348.964257284544,278.433635971674,-594.643037841969,316.209401870297, , , , , , , , , , , , , , , , , , , , , , , , , , , , , , , , , , , , , , , , , , , , , , , , , , , , , , , , , , , , ,
-598.518450214081,-48.9503291074901,549.568121106591,654.215959973497,-657.74156483112,-1175.64915142716,-812.79541703985,-411.59423375388,-380.219144073408,323.734389660785,-574.043285660336,250.308895999552, , , , , , , , , , , , , , , , , , , , , , , , , , , , , , , , , , , , , , , , , , , , , , , , , , , , , , , , , , , , ,
-612.255952103471,-115.352142795923,496.903809307549,647.284431101584,-674.38412626594,-1216.49564515812,-935.739829103306,-464.706743735799,-402.2052156482,363.804047449697,-554.57988070551,190.775833255815, , , , , , , , , , , , , , , , , , , , , , , , , , , , , , , , , , , , , , , , , , , , , , , , , , , , , , , , , , , , ,
-617.724617991404,-173.378453626665,444.34616436474,650.962919939196,-688.258819769749,-1243.17868252207,-1024.98150393273,-502.066043796925,-416.197152310486,395.551535809034,-531.035391178072,135.483855369039, , , , , , , , , , , , , , , , , , , , , , , , , , , , , , , , , , , , , , , , , , , , , , , , , , , , , , , , , , , , ,
-613.45566269222,-223.622122954417,389.833539737804,652.291697718209,-698.698746002132,-1256.70807398716,-1083.66140762665,-526.001491991952,-423.528685128566,418.538892823318,-501.644601215011,83.1057083916946, , , , , , , , , , , , , , , , , , , , , , , , , , , , , , , , , , , , , , , , , , , , , , , , , , , , , , , , , , , , ,
-607.262615049024,-228.419065111159,378.843549937866,642.389184064928,-705.152620874536,-1258.28733550164,-1115.51579800125,-538.914087220114,-425.517100510822,417.840840080091,-493.053082493445,75.2122424133547, , , , , , , , , , , , , , , , , , , , , , , , , , , , , , , , , , , , , , , , , , , , , , , , , , , , , , , , , , , , ,
-596.419681442614,-228.419065111159,368.000616331456,632.423299144534,-707.224634034478,-1249.26200170883,-1124.64016314642,-543.150653087404,-423.40010371762,412.419373276886,-482.210148887035,69.79077561015, , , , , , , , , , , , , , , , , , , , , , , , , , , , , , , , , , , , , , , , , , , , , , , , , , , , , , , , , , , , ,
-579.477094873051,-259.913824943516,319.563269929536,621.539414663934,-704.701031840884,-1231.06547913449,-1115.26428616977,-540.899759282531,-418.287174988712,419.695459908284,-449.520182401293,29.8247224930109, , , , , , , , , , , , , , , , , , , , , , , , , , , , , , , , , , , , , , , , , , , , , , , , , , , , , , , , , , , , ,
-567.785634139287,-290.411055725446,277.374578413841,620.329023807706,-695.935305808078,-1205.16578893325,-1091.55004866499,-534.112355308233,-411.126231831659,429.098344932366,-422.580106276564,-6.51823865580144, , , , , , , , , , , , , , , , , , , , , , , , , , , , , , , , , , , , , , , , , , , , , , , , , , , , , , , , , , , , ,
-555.995226156905,-317.762164472588,238.233061684318,611.304452377297,-682.262075738542,-1173.0158156363,-1057.42033595385,-524.448074920262,-403.21493065836,436.878695314746,-397.114143920612,-39.7645513941334, , , , , , , , , , , , , , , , , , , , , , , , , , , , , , , , , , , , , , , , , , , , , , , , , , , , , , , , , , , , ,
-541.275124585872,-342.260984377992,199.01414020788,600.689590906781,-664.244085786725,-1136.00895344366,-1016.42419546417,-513.246481427731,-396.65835296773,441.768054481932,-370.144632396876,-71.623422085055, , , , , , , , , , , , , , , , , , , , , , , , , , , , , , , , , , , , , , , , , , , , , , , , , , , , , , , , , , , , ,
-517.951475264928,-364.027194827256,153.924280437672,587.691131313702,-642.367815155727,-1095.44150565169,-971.640520386303,-501.521205693315,-389.817454753938,440.989335046092,-335.9378778513,-105.051457194791, , , , , , , , , , , , , , , , , , , , , , , , , , , , , , , , , , , , , , , , , , , , , , , , , , , , , , , , , , , , ,
-500.475893224043,-383.042570876602,117.433322347442,581.448070450806,-617.242728013395,-1052.48290725522,-925.620124981931,-489.973964317996,-380.601098741135,441.759232050322,-308.954607785743,-132.804624264578, , , , , , , , , , , , , , , , , , , , , , , , , , , , , , , , , , , , , , , , , , , , , , , , , , , , , , , , , , , , ,
-481.414622058091,-399.192693914623,82.2219281434684,567.439474016419,-589.560696212512,-1008.15468843884,-880.364117538272,-479.024775892821,-373.497069611895,440.303657986356,-281.818275100779,-158.485382885576, , , , , , , , , , , , , , , , , , , , , , , , , , , , , , , , , , , , , , , , , , , , , , , , , , , , , , , , , , , , ,
-461.086984113409,-412.31130618939,48.7756779240194,549.413922438453,-560.052847864942,-963.318853093404,-837.33484342271,-468.854249789438,-366.650105935366,436.699145151399,-254.931331018714,-181.767814132684, , , , , , , , , , , , , , , , , , , , , , , , , , , , , , , , , , , , , , , , , , , , , , , , , , , , , , , , , , , , ,
-439.784323487539,-422.224345808146,17.5599776793931,527.593827332217,-529.447867359911,-918.675845542988,-797.494287149068,-459.453575380134,-358.810398879436,431.004334647842,-228.672150583466,-202.332184064375, , , , , , , , , , , , , , , , , , , , , , , , , , , , , , , , , , , , , , , , , , , , , , , , , , , , , , , , , , , , ,
-417.374887282502,-428.790664879189,-11.4157775966863,502.050799158444,-498.435268169939,-874.771533649429,-761.36373599147,-450.677822480411,-350.24893587508,423.082776080845,-202.979554842908,-220.103221237936, , , , , , , , , , , , , , , , , , , , , , , , , , , , , , , , , , , , , , , , , , , , , , , , , , , , , , , , , , , , ,
-392.227350661448,-431.93663042666,-39.7092797652116,469.698477663182,-467.636195803268,-832.011824373181,-729.097857139529,-442.298435447032,-342.794959914036,412.081990544053,-176.259035448118,-235.822955095935, , , , , , , , , , , , , , , , , , , , , , , , , , , , , , , , , , , , , , , , , , , , , , , , , , , , , , , , , , , , ,
-369.936516545553,-431.682298256754,-61.7457817112006,434.91735297358,-437.583155672364,-790.682866115398,-700.566242638755,-434.051381569856,-334.804278268375,400.809407401153,-154.095367417176,-246.714039983976, , , , , , , , , , , , , , , , , , , , , , , , , , , , , , , , , , , , , , , , , , , , , , , , , , , , , , , , , , , , ,
-347.616890473528,-428.157609423918,-80.540718950389,396.45138348228,-408.708910808467,-750.974421348547,-675.435936535358,-425.678237530577,-325.305652444275,387.887249948723,-133.53808576157,-254.349164187152, , , , , , , , , , , , , , , , , , , , , , , , , , , , , , , , , , , , , , , , , , , , , , , , , , , , , , , , , , , , ,
-325.546995473364,-421.607976106091,-96.060980632727,354.551184646509,-381.343798741779,-713.003951965502,-653.249374600822,-416.95844600731,-315.176745063293,373.577485789727,-114.743007420318,-258.834478369408, , , , , , , , , , , , , , , , , , , , , , , , , , , , , , , , , , , , , , , , , , , , , , , , , , , , , , , , , , , , ,
-304.002877651229,-412.389540955046,-108.386663303817,310.698638720307,-355.719992065211,-676.839223617073,-633.493393087183,-407.731920920928,-305.334278494264,358.196209303137,-97.8081071737059,-260.38810212943, , , , , , , , , , , , , , , , , , , , , , , , , , , , , , , , , , , , , , , , , , , , , , , , , , , , , , , , , , , , ,
-283.250406135461,-400.955185908212,-117.70477977275,265.584509177998,-331.980851487193,-642.517740450514,-615.656351991354,-397.912027856375,-294.829210762529,342.102796021836,-82.7728131813552,-259.32998284048, , , , , , , , , , , , , , , , , , , , , , , , , , , , , , , , , , , , , , , , , , , , , , , , , , , , , , , , , , , , ,
-263.535733472598,-387.832987664831,-124.297254192233,237.874461051683,-310.193483487443,-610.061965795355,-599.271823488481,-387.489660030103,-283.764897272007,325.684360568714,-69.6192396401821,-256.065120928531, , , , , , , , , , , , , , , , , , , , , , , , , , , , , , , , , , , , , , , , , , , , , , , , , , , , , , , , , , , , ,
-245.075141587712,-373.599264033671,-128.524122445958,193.141634441013,-290.362818113887,-579.489937282682,-583.94857357054,-376.529645758553,-272.226517785831,309.337202810691,-58.2755095708772,-251.061693239813, , , , , , , , , , , , , , , , , , , , , , , , , , , , , , , , , , , , , , , , , , , , , , , , , , , , , , , , , , , , ,
-228.045582920789,-358.84861226975,-130.80302934896,169.626651464517,-272.445832736203,-550.821426679149,-569.38760095453,-365.161057777728,-259.899650758661,293.447097595269,-48.6212767859143,-244.825820809354, , , , , , , , , , , , , , , , , , , , , , , , , , , , , , , , , , , , , , , , , , , , , , , , , , , , , , , , , , , , ,
-212.577149169469,-344.163385637875,-131.586236468406,136.220564238609,-256.364863759321,-524.080161433982,-555.387739037803,-353.56316015204,-248.405291396014,278.370267403672,-40.4954563505317,-237.874811053139, , , , , , , , , , , , , , , , , , , , , , , , , , , , , , , , , , , , , , , , , , , , , , , , , , , , , , , , , , , , ,
-198.748408656445,-330.084888226919,-131.336479570473,107.682055100611,-242.019238628909,-499.292822409801,-541.841782583067,-341.948744734153,-237.104494030626,264.416648441682,-33.705964542986,-230.710683898695, , , , , , , , , , , , , , , , , , , , , , , , , , , , , , , , , , , , , , , , , , , , , , , , , , , , , , , , , , , , ,
-186.585072272085,-317.088218574301,-130.503146302215,82.4396537651967,-229.294742473591,-476.485608284425,-528.725317409752,-330.546499718618,-226.129700929215,251.836645423192,-28.0409629849346,-223.795682438257, , , , , , , , , , , , , , , , , , , , , , , , , , , , , , , , , , , , , , , , , , , , , , , , , , , , , , , , , , , , ,
-176.061917620263,-305.562220163201,-129.500302542937,57.7260607912586,-218.070723974884,-455.679167133349,-516.080470193731,-319.583851502165,-215.694065484068,240.812068891732,-23.2808075386631,-217.531261353067, , , , , , , , , , , , , , , , , , , , , , , , , , , , , , , , , , , , , , , , , , , , , , , , , , , , , , , , , , , , ,
-167.10749807012,-295.795489509181,-128.68799143906,41.8138828428056,-208.224931409903,-436.882683070111,-503.996714915716,-309.271472206818,-206.162172950978,231.45149378965,-19.20975331553,-212.241740474119, , , , , , , , , , , , , , , , , , , , , , , , , , , , , , , , , , , , , , , , , , , , , , , , , , , , , , , , , , , , ,
-159.610979967284,-287.968921528543,-128.357941561258,27.4640145075372,-199.636415456924,-420.087886756471,-492.590709336725,-299.790382707574,-197.617369431706,223.789950747913,-15.6265192030128,-208.163431544899, , , , , , , , , , , , , , , , , , , , , , , , , , , , , , , , , , , , , , , , , , , , , , , , , , , , , , , , , , , , ,
-153.430457603091,-282.154845711872,-128.724388108781,12.7449781694695,-192.186995650784,-405.263717046825,-481.986897893583,-291.282308132925,-190.160254093045,217.792651657481,-12.3530347471548,-205.439616910325, , , , , , , , , , , , , , , , , , , , , , , , , , , , , , , , , , , , , , , , , , , , , , , , , , , , , , , , , , , , ,
-146.492914873959,-278.322392135984,-131.829477262024,1.82467912548644,-185.761837444733,-392.352270972991,-472.300306614204,-283.843647800738,-183.871146359647,212.407653504972,-7.33171880596741,-205.075934699003, , , , , , , , , , , , , , , , , , , , , , , , , , , , , , , , , , , , , , , , , , , , , , , , , , , , , , , , , , , , ,
-141.562894704174,-276.348314491423,-134.785419787249,-6.3296044184378,-180.249644320519,-381.266536739908,-463.622589106446,-277.523113483674,-178.614582783604,208.955604597798,-3.38873745846232,-205.566867139335, , , , , , , , , , , , , , , , , , , , , , , , , , , , , , , , , , , , , , , , , , , , , , , , , , , , , , , , , , , , ,
-138.551538221484,-276.032132614426,-137.480594392942,-11.2188944288572,-175.542876098075,-371.890226403943,-456.011993542939,-272.322802687481,-174.353727283989,207.291835417955,-0.535471914270943,-206.756363503683, , , , , , , , , , , , , , , , , , , , , , , , , , , , , , , , , , , , , , , , , , , , , , , , , , , , , , , , , , , , ,
-136.190133186479,-277.11420868756,-140.92407550108,-13.9462288485601,-171.538282946918,-364.079821382606,-449.487531664458,-268.202235825222,-171.074340472297,206.652170937019,2.36697115730038,-209.019142094319, , , , , , , , , , , , , , , , , , , , , , , , , , , , , , , , , , , , , , , , , , , , , , , , , , , , , , , , , , , , ,
-134.303845888087,-279.295290749111,-144.991444861023,-14.6671581400491,-168.137893093688,-357.668716428216,-444.027255830961,-265.084708491158,-168.648835773981,206.799568318599,5.34379948646783,-212.143367805065, , , , , , , , , , , , , , , , , , , , , , , , , , , , , , , , , , , , , , , , , , , , , , , , , , , , , , , , , , , , ,
-132.735579027693,-282.256149925367,-149.520570897674,-14.5146359932986,-165.250421771101,-352.473117069883,-439.570218764372,-262.865200939347,-167.260600597995,207.49586447653,8.39249593499077,-215.888360411519, , , , , , , , , , , , , , , , , , , , , , , , , , , , , , , , , , , , , , , , , , , , , , , , , , , , , , , , , , , , ,
-131.010593389234,-285.676153960944,-154.66556057171,-13.1640737762943,-162.792916581453,-348.299155974057,-436.021444397316,-261.419057050964,-166.761041045505,208.343373675089,11.827483591238,-220.170857266326, , , , , , , , , , , , , , , , , , , , , , , , , , , , , , , , , , , , , , , , , , , , , , , , , , , , , , , , , , , , ,
-128.558497457257,-289.249879068947,-160.691381611689,-12.2175910834037,-160.692358740299,-344.950584560819,-433.259097995601,-260.610693214631,-167.006889645405,208.904188263101,16.0664420772163,-224.970630340317, , , , , , , , , , , , , , , , , , , , , , , , , , , , , , , , , , , , , , , , , , , , , , , , , , , , , , , , , , , , ,
-127.449223849511,-292.701104778038,-165.251880928527,-10.8036035830068,-158.886918305403,-342.236380648725,-431.142997929929,-260.301703951409,-167.90944662118,210.075164313774,18.9013285395084,-228.976492853282, , , , , , , , , , , , , , , , , , , , , , , , , , , , , , , , , , , , , , , , , , , , , , , , , , , , , , , , , , , , ,
-126.227291303719,-295.793749468293,-169.566458164573,-10.2289255333342,-157.326607837863,-339.977677480507,-429.52363455462,-260.357869267541,-168.565091619769,211.010520386005,21.6695834304273,-232.680103816432, , , , , , , , , , , , , , , , , , , , , , , , , , , , , , , , , , , , , , , , , , , , , , , , , , , , , , , , , , , , ,
-124.855129236892,-298.339505034834,-173.484375797941,-8.64039887861283,-155.973168622732,-338.013535797771,-428.250933773179,-260.654721090741,-169.522572953212,211.597317135863,24.3146232805242,-235.911940416386, , , , , , , , , , , , , , , , , , , , , , , , , , , , , , , , , , , , , , , , , , , , , , , , , , , , , , , , , , , , ,
-123.322739770415,-300.202130212229,-176.879390441814,-6.38740682063155,-154.799129209013,-336.205222376034,-427.182115944694,-261.081485899635,-169.728503270989,211.762434991322,26.7783253356997,-238.54076032702, , , , , , , , , , , , , , , , , , , , , , , , , , , , , , , , , , , , , , , , , , , , , , , , , , , , , , , , , , , , ,
-121.64475070404,-301.298551947746,-179.653801243705,-5.94090499081437,-153.786082855176,-334.438812602095,-426.188153057945,-261.543379631965,-169.930732743252,211.471651325893,29.0045252698327,-240.476176595724, , , , , , , , , , , , , , , , , , , , , , , , , , , , , , , , , , , , , , , , , , , , , , , , , , , , , , , , , , , , ,
-119.856508511328,-301.597079727289,-181.740571215961,-6.51347306952515,-152.922336626077,-332.626096275443,-425.158514294652,-261.962376387738,-170.076715328681,210.726794119308,30.9420313523169,-241.668825471624, , , , , , , , , , , , , , , , , , , , , , , , , , , , , , , , , , , , , , , , , , , , , , , , , , , , , , , , , , , , ,
-118.009336997174,-301.113155429816,-183.103818432642,-5.31767649838553,-152.200186900351,-330.703925961241,-424.004100382157,-262.27669687093,-170.128473763133,209.561246213495,32.5472407177341,-242.108486931228, , , , , , , , , , , , , , , , , , , , , , , , , , , , , , , , , , , , , , , , , , , , , , , , , , , , , , , , , , , , ,
-116.165123505438,-299.903160740045,-183.738037234606,-5.71759282860696,-151.613155478997,-328.632287616187,-422.658476980623,-262.439361902476,-170.060650210724,208.034142122741,33.7864568645845,-241.820598987324, , , , , , , , , , , , , , , , , , , , , , , , , , , , , , , , , , , , , , , , , , , , , , , , , , , , , , , , , , , , ,
-114.390552113961,-298.05688708688,-183.666334972918,-8.54834046157113,-151.153544000123,-326.391466594749,-421.077686624605,-262.416213811584,-169.858126095239,206.22371960042,34.6378914294787,-240.861611029898, , , , , , , , , , , , , , , , , , , , , , , , , , , , , , , , , , , , , , , , , , , , , , , , , , , , , , , , , , , , ,
-112.751456078558,-295.689301637559,-182.937845559001,-11.0334546970842,-150.81060586899,-323.978703778401,-419.239002931166,-262.183798767509,-169.513493440853,204.220378858058,35.0931947402217,-239.313573598279, , , , , , , , , , , , , , , , , , , , , , , , , , , , , , , , , , , , , , , , , , , , , , , , , , , , , , , , , , , , ,
-111.307779787041,-292.932184952221,-181.624405165179,-13.1640737762943,-150.569507601341,-321.404687115144,-417.138975643309,-261.727423494008,-169.024626526096,202.119982369631,35.1583126890688,-237.278295058699, , , , , , , , , , , , , , , , , , , , , , , , , , , , , , , , , , , , , , , , , , , , , , , , , , , , , , , , , , , , ,
-110.109511593762,-289.926089095226,-179.816577501463,-13.1640737762943,-150.41110735442,-318.690135104081,-414.791033635886,-261.039581227254,-168.392540653884,200.017800344493,34.853532953851,-234.871333298343, , , , , , , , , , , , , , , , , , , , , , , , , , , , , , , , , , , , , , , , , , , , , , , , , , , , , , , , , , , , ,
-109.193747355679,-286.812915070076,-177.619167714396,-13.1640737762943,-150.312465492602,-315.862637230227,-412.22281696102,-260.118820484554,-167.619654699735,198.003331212877,34.2127101793584,-232.216041392235, , , , , , , , , , , , , , , , , , , , , , , , , , , , , , , , , , , , , , , , , , , , , , , , , , , , , , , , , , , , ,
-108.582853232689,-283.72927406407,-175.146420831381,-13.1640737762943,-150.247931402153,-312.953839015688,-409.473331377994,-258.969025036818,-166.708507301708,196.156063648379,33.2817837993461,-229.437847447724, , , , , , , , , , , , , , , , , , , , , , , , , , , , , , , , , , , , , , , , , , , , , , , , , , , , , , , , , , , , ,
-108.283589389718,-280.800706401788,-172.517117012069,-13.1640737762943,-150.190607639928,-309.996998000912,-406.5899699523,-257.598995155161,-165.660922056431,194.542147895753,32.1167638111757,-226.658911706928, , , , , , , , , , , , , , , , , , , , , , , , , , , , , , , , , , , , , , , , , , , , , , , , , , , , , , , , , , , , ,
-108.287076807928,-278.136796166994,-169.849719359065,-13.1640737762943,-150.113964856639,-307.024892070152,-403.625428415607,-256.022181099504,-164.47758625479,193.211936487461,30.7813212755686,-223.993257763029, , , , , , , , , , , , , , , , , , , , , , , , , , , , , , , , , , , , , , , , , , , , , , , , , , , , , , , , , , , , ,
-108.569594492367,-275.827218744479,-167.257624252112,-13.1640737762943,-149.993372821851,-304.068036451279,-400.634550841328,-254.256423128364,-163.158001629324,192.198406618423,29.3440148798727,-221.542421498294, , , , , , , , , , , , , , , , , , , , , , , , , , , , , , , , , , , , , , , , , , , , , , , , , , , , , , , , , , , , ,
-109.0942739926,-273.938765629436,-164.844491636836,-13.1640737762943,-149.807334776203,-301.15316358927,-397.67116633414,-252.323583916004,-161.700767786592,191.516519811018,27.875108822118,-219.391628633135, , , , , , , , , , , , , , , , , , , , , , , , , , , , , , , , , , , , , , , , , , , , , , , , , , , , , , , , , , , , ,
-109.813738130883,-272.513401360491,-162.699663229607,-13.1640737762943,-149.538265353521,-298.301937891515,-394.784999309359,-250.248999393168,-160.104149234577,191.163569745687,26.4429625493622,-217.606532295048, , , , , , , , , , , , , , , , , , , , , , , , , , , , , , , , , , , , , , , , , , , , , , , , , , , , , , , , , , , , ,
-110.673616751593,-271.5674269484,-160.893810196806,-13.1640737762943,-149.172733110046,-295.529907187647,-392.018753878226,-248.060714041591,-158.366852075366,191.120521849996,25.1100967226065,-216.230618572602, , , , , , , , , , , , , , , , , , , , , , , , , , , , , , , , , , , , , , , , , , , , , , , , , , , , , , , , , , , , ,
-111.616703012224,-271.09183797383,-159.475134961605,-13.1640737762943,-148.701200674851,-292.845732044649,-389.405503269225,-245.788511069496,-156.488914945139,191.354270493027,23.9292159746903,-215.283486467716, , , , , , , , , , , , , , , , , , , , , , , , , , , , , , , , , , , , , , , , , , , , , , , , , , , , , , , , , , , , ,
-112.587332861894,-271.053943609038,-158.466610747143,-13.1640737762943,-148.117427070468,-290.250781501602,-386.966566990249,-243.462799782749,-154.472620386609,191.820638235466,22.9396389426243,-214.760277178089, , , , , , , , , , , , , , , , , , , , , , , , , , , , , , , , , , , , , , , , , , , , , , , , , , , , , , , , , , , , ,
-113.535444768941,-271.400240318622,-157.864795549681,-13.1640737762943,-147.41779616081,-287.739219568385,-384.710106402754,-241.113469753563,-152.32335516958,192.467842543781,22.1646753903704,-214.63251793415, , , , , , , , , , , , , , , , , , , , , , , , , , , , , , , , , , , , , , , , , , , , , , , , , , , , , , , , , , , , ,
-114.419787470215,-272.060426977585,-157.64063950737,-13.1640737762943,-146.600843286985,-285.298695515262,-382.630665126606,-238.768841026114,-150.050370094467,193.2401072239,21.6104260185774,-214.850533242476, , , , , , , , , , , , , , , , , , , , , , , , , , , , , , , , , , , , , , , , , , , , , , , , , , , , , , , , , , , , ,
-115.209917528205,-272.952339338767,-157.742421810562,-13.1640737762943,-145.667161055847,-282.911675591292,-380.709794628411,-236.454817076778,-147.667396759437,194.081128433486,21.2662521411788,-215.347380574663, , , , , , , , , , , , , , , , , , , , , , , , , , , , , , , , , , , , , , , , , , , , , , , , , , , , , , , , , , , , ,
-115.886886437322,-273.987491566075,-158.100605128752,-13.1640737762943,-144.619722632468,-280.557335946619,-378.917754180394,-234.194291441249,-145.193073539732,194.937189001698,21.1068593457149,-216.044048347412, , , , , , , , , , , , , , , , , , , , , , , , , , , , , , , , , , , , , , , , , , , , , , , , , , , , , , , , , , , , ,
-116.44272960992,-275.076838775242,-158.634109165322,-13.1640737762943,-143.464522418288,-278.213817145956,-377.216107909154,-232.006796196252,-142.651123276391,195.759784192581,21.0956897777011,-216.855473970281, , , , , , , , , , , , , , , , , , , , , , , , , , , , , , , , , , , , , , , , , , , , , , , , , , , , , , , , , , , , ,
-116.878978263461,-276.136315608891,-159.257337345429,-13.1640737762943,-142.211331747086,-275.860554523351,-375.56091118903,-229.908334607118,-140.070213985148,196.507646936176,21.1891795409841,-217.696826477159, , , , , , , , , , , , , , , , , , , , , , , , , , , , , , , , , , , , , , , , , , , , , , , , , , , , , , , , , , , , ,
-117.204467525504,-277.09168447457,-159.887216949066,-13.1640737762943,-140.874315617737,-273.480368063659,-373.906115259216,-227.911320300171,-137.483428924294,197.148076000037,21.3413747117813,-218.489450711817, , , , , , , , , , , , , , , , , , , , , , , , , , , , , , , , , , , , , , , , , , , , , , , , , , , , , , , , , , , , ,
-115.356828405046,-277.882276762518,-162.525448357472,-13.1640737762943,-139.472261431052,-271.061026464938,-372.206824745401,-226.024549289336,-134.927289827388,196.619552583782,23.5843099762134,-220.203862559994, , , , , , , , , , , , , , , , , , , , , , , , , , , , , , , , , , , , , , , , , , , , , , , , , , , , , , , , , , , , ,
-113.306211255537,-278.463339821195,-165.157128565657,-13.1640737762943,-138.028226540348,-268.596077613346,-370.422097781982,-224.253152929862,-132.440326229656,195.884775538365,25.9254586550603,-221.810234193425, , , , , , , , , , , , , , , , , , , , , , , , , , , , , , , , , , , , , , , , , , , , , , , , , , , , , , , , , , , , ,
-111.073838268359,-278.806884214118,-167.733045945759,-13.1640737762943,-136.56850447437,-266.084841303693,-368.517063890924,-222.598512974503,-130.061255182319,194.940361241238,28.3296038387002,-223.269965079937, , , , , , , , , , , , , , , , , , , , , , , , , , , , , , , , , , , , , , , , , , , , , , , , , , , , , , , , , , , , ,
-108.69271365647,-278.901117472138,-170.208403815668,-13.1640737762943,-135.120930237845,-263.531582898411,-366.464247476432,-221.058161706579,-127.826910942342,193.796915564304,30.7578450795994,-224.554760643902, , , , , , , , , , , , , , , , , , , , , , , , , , , , , , , , , , , , , , , , , , , , , , , , , , , , , , , , , , , , ,
-106.204659487781,-278.748711404783,-172.544051917001,-13.1640737762943,-133.712682930343,-260.944024753934,-364.244122499064,-219.625738850246,-125.770128116216,192.476685446281,33.1696962146102,-225.646381660891, , , , , , , , , , , , , , , , , , , , , , , , , , , , , , , , , , , , , , , , , , , , , , , , , , , , , , , , , , , , ,
-103.656830321159,-278.364243747586,-174.707413426427,-13.1640737762943,-132.367870764028,-258.331479661687,-361.845061584846,-218.291118043183,-123.91781847959,191.010537034372,35.5252915526341,-226.535828587005, , , , , , , , , , , , , , , , , , , , , , , , , , , , , , , , , , , , , , , , , , , , , , , , , , , , , , , , , , , , ,
-101.097920143635,-277.771166305105,-176.67324616147,-13.1640737762943,-131.105258257252,-255.702964998617,-359.262933408307,-217.040819137273,-122.289472404272,189.434543224369,37.7876630089176,-227.222206233286, , , , , , , , , , , , , , , , , , , , , , , , , , , , , , , , , , , , , , , , , , , , , , , , , , , , , , , , , , , , ,
-98.5742546387976,-276.998604297162,-178.424349658364,-13.1640737762943,-129.936492704638,-253.065650768067,-356.500607186395,-215.858767952131,-120.896252453786,187.78642946798,39.9250475097833,-227.711476977762, , , , , , , , , , , , , , , , , , , , , , , , , , , , , , , , , , , , , , , , , , , , , , , , , , , , , , , , , , , , ,
-96.125981293903,-276.078229902458,-179.952248608554,-13.1640737762943,-128.865110913382,-250.423913346875,-353.56754427443,-214.72736780329,-119.740745736232,186.10210559818,41.9131336573257,-228.015239255505, , , , , , , , , , , , , , , , , , , , , , , , , , , , , , , , , , , , , , , , , , , , , , , , , , , , , , , , , , , , ,
-93.7836335530963,-275.041405506407,-181.257771953311,-17.1309591373929,-127.88647666159,-247.779132595865,-350.479533598982,-213.628751323287,-118.817335625131,184.412519529751,43.7370692001073,-228.149588729858, , , , , , , , , , , , , , , , , , , , , , , , , , , , , , , , , , , , , , , , , , , , , , , , , , , , , , , , , , , , ,
-91.5654114638393,-273.916758635934,-182.351347172094,-24.9260035396618,-126.988635635557,-245.130209797059,-347.258504954263,-212.546026427864,-118.113070027253,182.741085049886,45.3929678541273,-228.134052904012, , , , , , , , , , , , , , , , , , , , , , , , , , , , , , , , , , , , , , , , , , , , , , , , , , , , , , , , , , , , ,
-89.4755378577654,-272.728320317215,-183.252782459449,-28.7534612994122,-126.153908354567,-242.474629106638,-343.932262674219,-211.464331210173,-117.608854358584,181.10192908749,46.8886223008417,-227.99055138833, , , , , , , , , , , , , , , , , , , , , , , , , , , , , , , , , , , , , , , , , , , , , , , , , , , , , , , , , , , , ,
-87.5039847301969,-271.49432512842,-183.990340398223,-36.0789786804995,-125.360917623334,-239.809774379124,-340.533941338009,-210.371559609292,-117.280781046843,179.499154929308,48.2431778340129,-227.74233276332, , , , , , , , , , , , , , , , , , , , , , , , , , , , , , , , , , , , , , , , , , , , , , , , , , , , , , , , , , , , ,
-85.6277121246293,-270.226721983434,-184.599009858804,-42.8719973918653,-124.586698385652,-237.134173269386,-337.101000038338,-209.258684572111,-117.101412906406,177.927217054031,49.4856488670875,-227.412865921118, , , , , , , , , , , , , , , , , , , , , , , , , , , , , , , , , , , , , , , , , , , , , , , , , , , , , , , , , , , , ,
-83.8133430696801,-268.931361355412,-185.118018285731,-46.4671758913705,-123.808555973636,-234.448365383194,-333.67362706855,-208.11965687184,-117.04085575265,176.372352212545,50.6523376080255,-227.02468982057, , , , , , , , , , , , , , , , , , , , , , , , , , , , , , , , , , , , , , , , , , , , , , , , , , , , , , , , , , , , ,
-82.0209754020963,-267.608719734083,-185.587744331986,-51.4328176876972,-123.005392763449,-231.755154310879,-330.292504347445,-206.950890836433,-117.067491847726,174.814847568089,51.7833844649452,-226.598232033034, , , , , , , , , , , , , , , , , , , , , , , , , , , , , , , , , , , , , , , , , , , , , , , , , , , , , , , , , , , , ,
-80.2086806604409,-266.254951797814,-186.046271137373,-56.360269694774,-122.158305165224,-229.059091805779,-326.995978580364,-205.750383999175,-117.148313355899,173.231816229127,52.9187952384659,-226.150611467592, , , , , , , , , , , , , , , , , , , , , , , , , , , , , , , , , , , , , , , , , , , , , , , , , , , , , , , , , , , , ,
-78.3371887747306,-264.863068734622,-186.525879959891,-60.1802741202372,-121.250378790777,-226.365164870937,-323.816806336157,-204.516566777554,-117.248889366573,171.600128754676,54.0943455925804,-225.694474347255, , , , , , , , , , , , , , , , , , , , , , , , , , , , , , , , , , , , , , , , , , , , , , , , , , , , , , , , , , , , ,
-76.3742664599206,-263.424107350519,-187.049840890598,-61.5785426879246,-120.265779276349,-223.676814982084,-320.778765874394,-203.247027812756,-117.333095987087,169.899186905219,55.3377872153387,-225.236974120557, , , , , , , , , , , , , , , , , , , , , , , , , , , , , , , , , , , , , , , , , , , , , , , , , , , , , , , , , , , , ,
-74.298317153224,-261.928223276635,-187.629906123411,-64.5350496785696,-119.188410403015,-220.993582712579,-317.893525292037,-201.937294747918,-117.362811545374,168.113270214929,56.6657944850934,-224.779064700022, , , , , , , , , , , , , , , , , , , , , , , , , , , , , , , , , , , , , , , , , , , , , , , , , , , , , , , , , , , , ,
-72.1007587756063,-260.365680344551,-188.264921568944,-66.8287685530681,-118.000528800189,-218.308786450686,-315.158193028274,-200.579858351822,-117.29781266913,166.233219560078,58.0820813966688,-224.315300956746, , , , , , , , , , , , , , , , , , , , , , , , , , , , , , , , , , , , , , , , , , , , , , , , , , , , , , , , , , , , ,
-69.7868200580085,-258.727724778924,-188.940904720915,-68.5661782651984,-116.681720121962,-215.607668539123,-312.553938519633,-199.163601296631,-117.096093190681,164.257272418466,59.5770423314534,-223.834314749918, , , , , , , , , , , , , , , , , , , , , , , , , , , , , , , , , , , , , , , , , , , , , , , , , , , , , , , , , , , , ,
-67.3745806208562,-257.007353353841,-189.632772732984,-69.8369921333556,-115.208557143194,-212.866377160722,-310.045964639882,-197.673736480751,-116.714768260918,162.190966987348,61.129096056064,-223.320063043411, , , , , , , , , , , , , , , , , , , , , , , , , , , , , , , , , , , , , , , , , , , , , , , , , , , , , , , , , , , , ,
-64.3352463797229,-255.200024484175,-190.864778104451,-69.7046712552924,-113.555123225185,-210.052036903344,-307.584964562993,-196.092296711063,-116.111634652511,159.767635431948,63.2647658623643,-223.032401294312, , , , , , , , , , , , , , , , , , , , , , , , , , , , , , , , , , , , , , , , , , , , , , , , , , , , , , , , , , , , ,
-60.411840106153,-253.304400125268,-192.892560019115,-70.704631995643,-113.321772108775,-210.052036903344,-305.110031848363,-194.399166185956,-115.247350797248,156.85812011571,66.240359956481,-223.09848007219, , , , , , , , , , , , , , , , , , , , , , , , , , , , , , , , , , , , , , , , , , , , , , , , , , , , , , , , , , , , ,
-56.0237424423618,-251.323191197024,-195.299448754661,-71.644274055134,-113.321772108775,-210.052036903344,-302.552827707947,-192.573597218281,-114.088086505399,153.673466819692,69.6378531561499,-223.311319975841, , , , , , , , , , , , , , , , , , , , , , , , , , , , , , , , , , , , , , , , , , , , , , , , , , , , , , , , , , , , ,
-51.7291832186421,-249.264077238841,-197.534894020198,-72.6681562947014,-113.321772108775,-210.052036903344,-299.842647462614,-190.596091702934,-112.608382465068,150.496630228741,72.9028554007783,-223.399485629519, , , , , , , , , , , , , , , , , , , , , , , , , , , , , , , , , , , , , , , , , , , , , , , , , , , , , , , , , , , , ,
-47.5151300898465,-247.140526473111,-199.625396383264,-73.9132888685281,-113.321772108775,-210.052036903344,-296.911885076238,-188.45044187723,-110.793872523395,147.327828281478,76.0551331467087,-223.382961428186, , , , , , , , , , , , , , , , , , , , , , , , , , , , , , , , , , , , , , , , , , , , , , , , , , , , , , , , , , , , ,
-43.3557096843674,-244.972252876397,-201.616543192029,-75.5037722847325,-113.321772108775,-210.052036903344,-293.70130646279,-186.125646818909,-108.643481113969,144.163981280382,79.1304167538309,-223.294398034212, , , , , , , , , , , , , , , , , , , , , , , , , , , , , , , , , , , , , , , , , , , , , , , , , , , , , , , , , , , , ,
-40.8266062745671,-242.785069550244,-201.958463275676,-77.1155818999458,-113.321772108775,-210.052036903344,-290.16454575052,-183.617392078138,-106.170728830818,141.805837912405,80.5659285005547,-222.371766412959, , , , , , , , , , , , , , , , , , , , , , , , , , , , , , , , , , , , , , , , , , , , , , , , , , , , , , , , , , , , ,
-37.0250036656874,-240.610001478037,-203.584997812349,-78.2230318173907,-113.321772108775,-210.052036903344,-290.16454575052,-183.617392078138,-103.403862177558,138.817502571862,83.2799970733309,-222.097499645192, , , , , , , , , , , , , , , , , , , , , , , , , , , , , , , , , , , , , , , , , , , , , , , , , , , , , , , , , , , , ,
-32.92011632403,-238.481637665314,-205.561521341283,-81.0127358865345,-113.321772108775,-210.052036903344,-290.16454575052,-183.617392078138,-100.384662933173,135.700876994672,86.3207025086267,-222.021579503297, , , , , , , , , , , , , , , , , , , , , , , , , , , , , , , , , , , , , , , , , , , , , , , , , , , , , , , , , , , , ,
-28.7309668624383,-236.435802067552,-207.704835205113,-84.3831863532671,-113.321772108775,-210.052036903344,-290.16454575052,-183.617392078138,-97.1659786017878,132.583384464995,89.4869341713375,-222.070318636331, , , , , , , , , , , , , , , , , , , , , , , , , , , , , , , , , , , , , , , , , , , , , , , , , , , , , , , , , , , , ,
-24.4225125053143,-234.506716455417,-210.084203950102,-87.7102275195594,-113.321772108775,-210.052036903344,-290.16454575052,-183.617392078138,-93.8082232648285,129.464614480365,92.830845722394,-222.295460202758, , , , , , , , , , , , , , , , , , , , , , , , , , , , , , , , , , , , , , , , , , , , , , , , , , , , , , , , , , , , ,
-21.9301887475881,-232.723920867122,-210.793732119533,-89.7597680685877,-113.321772108775,-210.052036903344,-290.16454575052,-183.617392078138,-90.3752746345868,127.327054807355,94.4317716859728,-221.758826493327, , , , , , , , , , , , , , , , , , , , , , , , , , , , , , , , , , , , , , , , , , , , , , , , , , , , , , , , , , , , ,
-17.8398755138487,-231.109284145739,-213.26940863189,-94.4267123775488,-113.321772108775,-210.052036903344,-290.16454575052,-183.617392078138,-86.930272886485,124.474579829794,97.7147665590208,-222.189346388813, , , , , , , , , , , , , , , , , , , , , , , , , , , , , , , , , , , , , , , , , , , , , , , , , , , , , , , , , , , , ,
-13.2127592682328,-229.674454533951,-216.461695265717,-98.4516969233253,-113.321772108775,-210.052036903344,-290.16454575052,-183.617392078138,-83.5317793824407,121.443606901091,101.624467998742,-223.068074899833, , , , , , , , , , , , , , , , , , , , , , , , , , , , , , , , , , , , , , , , , , , , , , , , , , , , , , , , , , , , ,
-8.46368005868088,-228.419065111159,-219.955385052477,-101.207534035966,-113.321772108775,-210.052036903344,-290.16454575052,-183.617392078138,-80.2306109115067,118.441372584919,105.745852496898,-224.187225081817, , , , , , , , , , , , , , , , , , , , , , , , , , , , , , , , , , , , , , , , , , , , , , , , , , , , , , , , , , , , ,
-5.49098636168571,-228.419065111159,-222.928078749472,-106.828436102898,-113.321772108775,-210.052036903344,-290.16454575052,-183.617392078138,-77.0674981698541,116.955025736422,108.718546193893,-225.673571930314, , , , , , , , , , , , , , , , , , , , , , , , , , , , , , , , , , , , , , , , , , , , , , , , , , , , , , , , , , , , ,
-1.32663513551528,-228.419065111159,-227.092429975643,-108.982159019555,-113.321772108775,-210.052036903344,-290.16454575052,-183.617392078138,-74.071586934266,114.872850123337,112.882897420064,-227.7557475434, , , , , , , , , , , , , , , , , , , , , , , , , , , , , , , , , , , , , , , , , , , , , , , , , , , , , , , , , , , , ,
3.56079934235251,-228.419065111159,-231.979864453511,-114.282106113906,-113.321772108775,-210.052036903344,-290.16454575052,-183.617392078138,-71.2597300394008,112.429132884403,117.770331897932,-230.199464782333, , , , , , , , , , , , , , , , , , , , , , , , , , , , , , , , , , , , , , , , , , , , , , , , , , , , , , , , , , , , ,
8.41410179536217,-228.419065111159,-236.83316690652,-117.211328307658,-113.321772108775,-210.052036903344,-290.16454575052,-183.617392078138,-68.6364948486736,110.002481657898,122.623634350941,-232.626116008838, , , , , , , , , , , , , , , , , , , , , , , , , , , , , , , , , , , , , , , , , , , , , , , , , , , , , , , , , , , , ,
10.9424913338023,-228.419065111159,-239.36155644496,-121.791641205248,-113.321772108775,-210.052036903344,-290.16454575052,-183.617392078138,-66.1948053211828,108.738286888678,125.152023889381,-233.890310778058, , , , , , , , , , , , , , , , , , , , , , , , , , , , , , , , , , , , , , , , , , , , , , , , , , , , , , , , , , , , ,
15.6014387250051,-228.419065111159,-244.020503836163,-124.707089955811,-113.321772108775,-210.052036903344,-290.16454575052,-183.617392078138,-63.9171286987311,106.408813193076,129.810971280584,-236.21978447366, , , , , , , , , , , , , , , , , , , , , , , , , , , , , , , , , , , , , , , , , , , , , , , , , , , , , , , , , , , , ,
20.2898614254716,-228.419065111159,-248.70892653663,-129.326946830128,-110.491214845561,-210.052036903344,-290.16454575052,-183.617392078138,-61.7771006328206,104.064601842843,134.499393981051,-238.563995823893, , , , , , , , , , , , , , , , , , , , , , , , , , , , , , , , , , , , , , , , , , , , , , , , , , , , , , , , , , , , ,
24.8327346337929,-228.419065111159,-253.251799744951,-131.611516578994,-104.825362636856,-205.679545072101,-290.16454575052,-183.617392078138,-59.7414653808059,101.793165238683,139.042267189372,-240.835432428054, , , , , , , , , , , , , , , , , , , , , , , , , , , , , , , , , , , , , , , , , , , , , , , , , , , , , , , , , , , , ,
27.4496066095077,-228.419065111159,-255.868671720666,-136.810342259672,-101.353362477799,-200.139544849178,-290.16454575052,-183.617392078138,-57.7721949176049,100.484729250825,141.659139165087,-242.143868415911, , , , , , , , , , , , , , , , , , , , , , , , , , , , , , , , , , , , , , , , , , , , , , , , , , , , , , , , , , , , ,
32.0057110527283,-228.419065111159,-260.424776163886,-138.372131437815,-97.5369446175394,-192.475106151034,-290.16454575052,-178.042434011942,-55.8286439422636,98.2066770292149,146.215243608308,-244.421920637521, , , , , , , , , , , , , , , , , , , , , , , , , , , , , , , , , , , , , , , , , , , , , , , , , , , , , , , , , , , , ,
36.4977457373879,-228.419065111159,-264.916810848546,-143.165633386267,-95.4646968460835,-185.706691624294,-290.16454575052,-173.471311226771,-53.8695970348759,95.9606596868851,150.707278292967,-246.667937979851, , , , , , , , , , , , , , , , , , , , , , , , , , , , , , , , , , , , , , , , , , , , , , , , , , , , , , , , , , , , ,
40.9677631143916,-228.419065111159,-269.38682822555,-146.582258838388,-92.8871664626932,-175.804817827998,-290.16454575052,-170.883150795524,-51.8550740170989,93.7256509983832,155.177295669971,-248.902946668353, , , , , , , , , , , , , , , , , , , , , , , , , , , , , , , , , , , , , , , , , , , , , , , , , , , , , , , , , , , , ,
45.3352360347814,-228.419065111159,-273.75430114594,-149.766976979781,-89.0095353080794,-165.748318665058,-285.584180324607,-167.300868851107,-49.7477863555791,91.5419145381883,159.544768590361,-251.086683128548, , , , , , , , , , , , , , , , , , , , , , , , , , , , , , , , , , , , , , , , , , , , , , , , , , , , , , , , , , , , ,
48.9592168915823,-228.419065111159,-277.37828200274,-153.273943161287,-87.1188726346365,-160.236710860765,-276.385506391422,-161.789997126664,-47.5141776921539,89.7299241097879,163.168749447161,-252.898673556948, , , , , , , , , , , , , , , , , , , , , , , , , , , , , , , , , , , , , , , , , , , , , , , , , , , , , , , , , , , , ,
53.8263055595359,-228.419065111159,-282.245370670694,-156.956771710852,-83.6795794981972,-153.496020341267,-270.268733849358,-159.063488326637,-45.1250240449208,87.2963797758111,168.035838115115,-255.332217890925, , , , , , , , , , , , , , , , , , , , , , , , , , , , , , , , , , , , , , , , , , , , , , , , , , , , , , , , , , , , ,
58.8833113800846,-228.419065111159,-287.302376491243,-160.310903996933,-79.1503432349734,-148.970620452512,-265.488760643765,-155.328424508481,-42.5556148441253,84.7678768655367,173.092843935664,-257.860720801199, , , , , , , , , , , , , , , , , , , , , , , , , , , , , , , , , , , , , , , , , , , , , , , , , , , , , , , , , , , , ,
64.2003675470179,-228.419065111159,-292.619432658176,-164.5350280508,-75.8464821540123,-141.875481891435,-260.896608556041,-150.310808620635,-39.7855940766341,82.1093487820701,178.409900102597,-260.519248884666, , , , , , , , , , , , , , , , , , , , , , , , , , , , , , , , , , , , , , , , , , , , , , , , , , , , , , , , , , , , ,
69.84683808553,-228.419065111159,-298.265903196688,-168.118712835289,-69.700742556638,-131.576787326155,-253.255296372251,-145.973921257298,-36.7985985859228,79.286113512814,184.056370641109,-263.342484153922, , , , , , , , , , , , , , , , , , , , , , , , , , , , , , , , , , , , , , , , , , , , , , , , , , , , , , , , , , , , ,
75.8870417173952,-228.419065111159,-304.306106828553,-173.981002635059,-64.6483271720316,-126.373752302725,-243.43062128673,-142.637245732443,-33.5818525081527,76.2660116968814,190.096574272974,-266.362585969855, , , , , , , , , , , , , , , , , , , , , , , , , , , , , , , , , , , , , , , , , , , , , , , , , , , , , , , , , , , , ,
81.4054176623314,-228.419065111159,-309.82448277349,-177.93999784019,-61.5883203439346,-120.18976264282,-233.24584315921,-137.021214006195,-30.1258457320529,73.5068237244133,195.614950217911,-269.121773942323, , , , , , , , , , , , , , , , , , , , , , , , , , , , , , , , , , , , , , , , , , , , , , , , , , , , , , , , , , , , ,
87.8700732429753,-228.419065111159,-316.289138354134,-183.916702596537,-57.5527626792083,-111.83390414331,-224.238954585686,-133.029963196567,-26.424165406876,70.2744959340914,202.079605798555,-272.354101732645, , , , , , , , , , , , , , , , , , , , , , , , , , , , , , , , , , , , , , , , , , , , , , , , , , , , , , , , , , , , ,
95.1105040142369,-228.419065111159,-323.529569125395,-190.01037266371,-52.2033407839156,-104.98015000454,-217.162822845091,-128.715830590092,-22.4735047042695,66.6542805484606,209.320036569816,-275.974317118276, , , , , , , , , , , , , , , , , , , , , , , , , , , , , , , , , , , , , , , , , , , , , , , , , , , , , , , , , , , , ,
101.447797901391,-228.419065111159,-329.866863012549,-194.668644168458,-48.7775994846107,-95.822318976376,-208.521839451081,-120.75239727327,-18.2738562110776,63.4856336048838,215.65733045697,-279.142964061852, , , , , , , , , , , , , , , , , , , , , , , , , , , , , , , , , , , , , , , , , , , , , , , , , , , , , , , , , , , , ,
109.041238040514,-228.419065111159,-337.460303151672,-200.177502526162,-43.2262194503177,-83.0128609162022,-202.4835130305,-112.928160509831,-13.8288822476501,59.6889135353219,223.250770596093,-282.939684131414, , , , , , , , , , , , , , , , , , , , , , , , , , , , , , , , , , , , , , , , , , , , , , , , , , , , , , , , , , , , ,
116.70364898158,-228.419065111159,-345.122714092738,-206.064818569832,-38.6996990505803,-71.6132416810817,-193.536642213378,-106.887108626341,-9.14640922486389,55.857708064789,230.913181537159,-286.770889601947, , , , , , , , , , , , , , , , , , , , , , , , , , , , , , , , , , , , , , , , , , , , , , , , , , , , , , , , , , , , ,
123.918952250856,-228.419065111159,-352.338017362014,-210.927895015059,-34.608004625006,-62.8531411042505,-185.139013930268,-100.180535230551,-4.23892013524608,52.250056430151,238.128484806435,-290.378541236585, , , , , , , , , , , , , , , , , , , , , , , , , , , , , , , , , , , , , , , , , , , , , , , , , , , , , , , , , , , , ,
132.781660630509,-228.419065111159,-361.200725741668,-217.950801730805,-28.6147028574638,-49.4532601946803,-178.213116112302,-94.0290326699187,0.876146046242283,47.8187022403243,246.991193186089,-294.809895426412, , , , , , , , , , , , , , , , , , , , , , , , , , , , , , , , , , , , , , , , , , , , , , , , , , , , , , , , , , , , ,
141.735752140686,-228.419065111159,-370.154817251845,-222.852764562494,-22.3855437719515,-39.3023654508987,-167.089670975578,-85.0546832295946,6.17649799381483,43.3416564852358,255.945284696266,-299.2869411815, , , , , , , , , , , , , , , , , , , , , , , , , , , , , , , , , , , , , , , , , , , , , , , , , , , , , , , , , , , , ,
148.56942936435,-228.419065111159,-376.988494475509,-228.964703915442,-13.634550663696,-31.5616680742064,-156.048013189479,-74.8641079637373,11.6356613808178,39.9248178734038,262.77896191993,-302.703779793332, , , , , , , , , , , , , , , , , , , , , , , , , , , , , , , , , , , , , , , , , , , , , , , , , , , , , , , , , , , , ,
157.935352035152,-228.419065111159,-386.354417146311,-233.494134559584,-7.64810813717669,-23.6146292945828,-147.988090282817,-64.4127577982616,17.2242727859295,35.2418565380028,272.144884590732,-307.386741128733, , , , , , , , , , , , , , , , , , , , , , , , , , , , , , , , , , , , , , , , , , , , , , , , , , , , , , , , , , , , ,
166.354609908778,-228.419065111159,-394.773675019937,-238.492354482904,0.159206426402292,-15.5059989888958,-137.692683717297,-57.0920186987357,22.9119328831387,31.0322276011898,280.564142464358,-311.596370065546, , , , , , , , , , , , , , , , , , , , , , , , , , , , , , , , , , , , , , , , , , , , , , , , , , , , , , , , , , , , ,
173.122988806563,-224.406625819227,-397.529614625789,-242.927363990935,6.21307409583325,-4.75300696315014,-123.276245482055,-48.4502538109846,28.6694517321006,25.6418185063318,285.326301716176,-310.968120222507, , , , , , , , , , , , , , , , , , , , , , , , , , , , , , , , , , , , , , , , , , , , , , , , , , , , , , , , , , , , ,
180.192409370093,-219.11813592113,-399.310545291222,-247.933111088606,11.3745246493656,4.54367266064654,-108.46943685786,-40.792221371908,34.4712606177933,19.4628632755185,289.751477330657,-309.214340606175, , , , , , , , , , , , , , , , , , , , , , , , , , , , , , , , , , , , , , , , , , , , , , , , , , , , , , , , , , , , ,
189.584087140308,-214.049189244989,-403.633276385296,-252.365135816941,18.958171681617,18.9112951673173,-98.1795848085692,-30.8036923456519,40.297746242577,12.2325510523402,296.608681762802,-308.841232815141, , , , , , , , , , , , , , , , , , , , , , , , , , , , , , , , , , , , , , , , , , , , , , , , , , , , , , , , , , , , ,
197.133182690372,-208.766586718924,-405.899769409295,-256.876148412897,24.2947008522025,33.2211672379165,-86.9679026667445,-19.5238135010238,46.1372734670915,5.81670201427582,301.516476049834,-307.333178064109, , , , , , , , , , , , , , , , , , , , , , , , , , , , , , , , , , , , , , , , , , , , , , , , , , , , , , , , , , , , ,
205.128986548598,-202.987535883718,-408.116522432315,-261.646354386641,30.0829695038614,42.3587935942326,-77.1813462626298,-9.65777645285516,51.987697117059,-1.07072533244062,306.622754490457,-305.552029158015, , , , , , , , , , , , , , , , , , , , , , , , , , , , , , , , , , , , , , , , , , , , , , , , , , , , , , , , , , , , ,
214.531190556176,-192.693686658665,-407.22487721484,-266.061557564603,35.8246278170352,56.717868374768,-66.6442278054276,-1.44523795267133,57.8572176747898,-10.9187519487558,310.878033885508,-299.959281936751, , , , , , , , , , , , , , , , , , , , , , , , , , , , , , , , , , , , , , , , , , , , , , , , , , , , , , , , , , , , ,
220.829027002654,-182.279365592681,-403.108392595335,-270.51000335061,45.1957693140924,71.0405306503819,-56.2243286071776,8.36908143609941,63.7645002065283,-19.2748307049871,311.968709798995,-292.693879094007, , , , , , , , , , , , , , , , , , , , , , , , , , , , , , , , , , , , , , , , , , , , , , , , , , , , , , , , , , , , ,
230.150104991223,-175.541543248866,-405.691648240088,-274.433239647305,52.8049946800865,82.1131051673289,-42.8126198583099,17.2083446948628,69.7380383986126,-27.304280871179,317.920876615656,-290.616595744476, , , , , , , , , , , , , , , , , , , , , , , , , , , , , , , , , , , , , , , , , , , , , , , , , , , , , , , , , , , , ,
238.767223903254,-165.062531439096,-403.82975534235,-278.847151214233,60.1232886721153,92.5064349736488,-25.8074060289817,28.0729425700868,76.6310076520953,-36.8523462320794,321.298489622802,-284.446143390722, , , , , , , , , , , , , , , , , , , , , , , , , , , , , , , , , , , , , , , , , , , , , , , , , , , , , , , , , , , , ,
246.162430512949,-153.979245014691,-400.141675527639,-283.176690982414,67.4915256613749,102.647003641055,-10.8897820758649,36.9431650647682,82.8544397756907,-46.0915927491292,323.152053020294,-277.060460271164, , , , , , , , , , , , , , , , , , , , , , , , , , , , , , , , , , , , , , , , , , , , , , , , , , , , , , , , , , , , ,
255.950324395714,-144.96366459081,-400.913988986524,-287.22356502993,73.3007070500165,115.659096665287,3.00313361450645,46.6502693320901,89.27196212823,-55.4933299024522,328.432156691119,-272.938826788666, , , , , , , , , , , , , , , , , , , , , , , , , , , , , , , , , , , , , , , , , , , , , , , , , , , , , , , , , , , , ,
264.372977056781,-134.987424537097,-399.360401593877,-294.661788809704,80.9643623599885,128.940407203542,20.60875848845,59.0062337010713,96.5955887976203,-64.6927762598421,331.866689325329,-267.173913065486, , , , , , , , , , , , , , , , , , , , , , , , , , , , , , , , , , , , , , , , , , , , , , , , , , , , , , , , , , , , ,
273.0628543719,-123.066437279094,-396.129291650994,-298.53431069092,87.0017521737365,139.664642411894,34.5392117316766,71.4861832045133,103.99699881624,-74.9982085464036,334.596073011447,-259.597864465043, , , , , , , , , , , , , , , , , , , , , , , , , , , , , , , , , , , , , , , , , , , , , , , , , , , , , , , , , , , , ,
283.402415855418,-111.608456905001,-395.010872760418,-305.621300993505,92.9906946378778,151.974028731699,46.8884378288835,82.3045790160378,111.984196512123,-85.8969794752084,339.206644307918,-253.309664832709, , , , , , , , , , , , , , , , , , , , , , , , , , , , , , , , , , , , , , , , , , , , , , , , , , , , , , , , , , , , ,
292.547817470333,-102.126812157218,-394.674629627551,-313.236241363504,99.4468874008937,166.21218298155,63.0551575103759,94.332121858816,120.492997601626,-95.2105026565578,343.611223548942,-248.400720892384, , , , , , , , , , , , , , , , , , , , , , , , , , , , , , , , , , , , , , , , , , , , , , , , , , , , , , , , , , , , ,
302.125772319599,-89.3386733855919,-391.46444570519,-317.070525702879,108.158147880881,178.012454490289,75.813353401552,104.895330396893,129.128588428164,-106.393549467004,346.795109012395,-240.40155954539, , , , , , , , , , , , , , , , , , , , , , , , , , , , , , , , , , , , , , , , , , , , , , , , , , , , , , , , , , , , ,
313.212106267886,-76.3166281942765,-389.528734462162,-323.241998826007,116.686177733427,192.827217006405,88.7653283748103,115.787580959099,137.886376417667,-118.447739036805,351.370420365024,-232.922681328218, , , , , , , , , , , , , , , , , , , , , , , , , , , , , , , , , , , , , , , , , , , , , , , , , , , , , , , , , , , , ,
323.725856594162,-65.8573969505745,-389.583253544736,-327.265492563213,123.249267282239,207.470490521859,101.95319058309,127.002889569585,146.74192456595,-128.934229821794,356.654555069449,-227.720325247654, , , , , , , , , , , , , , , , , , , , , , , , , , , , , , , , , , , , , , , , , , , , , , , , , , , , , , , , , , , , ,
333.682459357363,-54.1352925101712,-387.817751867534,-331.858594286227,129.982679798073,221.09649410942,120.452399206526,138.526498843739,155.980957404168,-139.773583423596,360.750105612449,-220.976522188851, , , , , , , , , , , , , , , , , , , , , , , , , , , , , , , , , , , , , , , , , , , , , , , , , , , , , , , , , , , , ,
345.551420181504,-42.9957354623296,-388.547155643833,-336.956979091182,136.038396697408,233.399447778129,138.760435429522,150.335261074516,165.549488926477,-151.277842359588,367.049287912669,-215.77144555308, , , , , , , , , , , , , , , , , , , , , , , , , , , , , , , , , , , , , , , , , , , , , , , , , , , , , , , , , , , , ,
357.362724459463,-29.2336529273761,-386.596377386838,-342.301726262116,142.853080884498,247.768861928681,154.325374637696,162.398670700206,175.472151386558,-164.064535766044,371.979550923151,-207.915015157106, , , , , , , , , , , , , , , , , , , , , , , , , , , , , , , , , , , , , , , , , , , , , , , , , , , , , , , , , , , , ,
367.375996529613,-16.701386674246,-384.077383203859,-348.885522444477,148.778229559181,259.189164568838,170.323786866781,174.680506322495,185.711715903769,-175.337304927684,375.726689866736,-200.389384939051, , , , , , , , , , , , , , , , , , , , , , , , , , , , , , , , , , , , , , , , , , , , , , , , , , , , , , , , , , , , ,
379.898043478338,-4.94648647630868,-384.844529954646,-356.123673616754,154.770755501994,270.5625569244,185.026571188559,187.140961955019,196.090451002329,-187.475778501015,382.371286716493,-194.895508215476, , , , , , , , , , , , , , , , , , , , , , , , , , , , , , , , , , , , , , , , , , , , , , , , , , , , , , , , , , , , ,
391.965737172393,8.85578470918526,-383.109952463207,-363.56694730649,160.445631629828,281.864279153167,198.607073141593,199.739092676785,206.604202866788,-200.410760940789,387.5378448178,-187.12708387701, , , , , , , , , , , , , , , , , , , , , , , , , , , , , , , , , , , , , , , , , , , , , , , , , , , , , , , , , , , , ,
402.366945023868,22.557904738126,-379.809040285741,-372.394557019764,166.00453718638,293.071248947164,215.308881384916,212.43537414598,217.229051715659,-212.462424880997,391.087992654804,-178.625567773806, , , , , , , , , , , , , , , , , , , , , , , , , , , , , , , , , , , , , , , , , , , , , , , , , , , , , , , , , , , , ,
412.284188134689,33.273447024792,-379.010741109897,-381.855244541953,171.19751522657,304.162702846037,230.8385153173,225.194171879319,227.888464467545,-222.778817579741,395.647464622293,-172.868647042551, , , , , , , , , , , , , , , , , , , , , , , , , , , , , , , , , , , , , , , , , , , , , , , , , , , , , , , , , , , , ,
424.790532007675,46.7043156696053,-378.086216338069,-392.537061285489,176.43269750893,315.120875660504,244.406475860398,237.985930120668,238.75885284172,-235.747423838641,401.438374172872,-165.690950334231, , , , , , , , , , , , , , , , , , , , , , , , , , , , , , , , , , , , , , , , , , , , , , , , , , , , , , , , , , , , ,
434.928811040378,60.1631370300716,-374.765674010306,-403.2245831537,181.108425998396,325.931751193177,259.901514927713,250.788921925515,249.846034607157,-247.545974035225,404.847242525342,-157.301268490116, , , , , , , , , , , , , , , , , , , , , , , , , , , , , , , , , , , , , , , , , , , , , , , , , , , , , , , , , , , , ,
447.067974354382,72.4349408134724,-374.633033540909,-414.538349434712,185.769436768785,336.585894466363,273.43077374086,263.590453260521,261.066703183139,-259.751457583927,410.850503947645,-151.099046363717, , , , , , , , , , , , , , , , , , , , , , , , , , , , , , , , , , , , , , , , , , , , , , , , , , , , , , , , , , , , ,
457.737873889074,84.3213255267833,-373.41654836229,-425.822518584368,190.053137970839,347.079336444675,286.951401371279,276.387472490557,271.569554793331,-271.029599707929,415.577211125682,-144.547611417752, , , , , , , , , , , , , , , , , , , , , , , , , , , , , , , , , , , , , , , , , , , , , , , , , , , , , , , , , , , , ,
469.372375880189,97.774836450078,-371.59753943011,-436.751066468548,193.630415696665,357.414426979039,300.48046875979,289.186573901938,281.922244666546,-283.573606165134,420.484957655149,-136.911351490015, , , , , , , , , , , , , , , , , , , , , , , , , , , , , , , , , , , , , , , , , , , , , , , , , , , , , , , , , , , , ,
479.637537009069,111.262572642385,-368.374964366684,-448.235331323837,197.751860243623,367.600498810638,314.042240246168,302.003385350906,292.198477997875,-295.450054825727,424.006250687877,-128.556195862149, , , , , , , , , , , , , , , , , , , , , , , , , , , , , , , , , , , , , , , , , , , , , , , , , , , , , , , , , , , , ,
492.121915586793,123.874335772702,-368.24757981409,-461.252298467111,200.755387677591,377.654119201809,327.667303128804,314.861321351576,303.269463530552,-307.998125679748,430.184747700441,-122.186622020692, , , , , , , , , , , , , , , , , , , , , , , , , , , , , , , , , , , , , , , , , , , , , , , , , , , , , , , , , , , , ,
500.931235231612,136.882512793284,-364.048722438327,-472.589705456101,203.392665528254,387.59869245727,341.391046307969,327.789704713358,314.597556825095,-318.906874012448,432.48997883497,-113.58310482252, , , , , , , , , , , , , , , , , , , , , , , , , , , , , , , , , , , , , , , , , , , , , , , , , , , , , , , , , , , , ,
513.437462374398,151.13294350434,-362.304518870058,-483.344812613685,205.660849295487,397.463246867571,355.251478820352,340.821326035316,325.002467970412,-332.285202939369,437.870990622228,-105.585787682858, , , , , , , , , , , , , , , , , , , , , , , , , , , , , , , , , , , , , , , , , , , , , , , , , , , , , , , , , , , , ,
524.426272005036,165.694335327594,-358.731936677441,-493.527005545618,207.709847771214,407.280382767386,369.286490173925,353.989601473041,336.299414472422,-345.060303666315,441.579104341239,-96.5188006749225, , , , , , , , , , , , , , , , , , , , , , , , , , , , , , , , , , , , , , , , , , , , , , , , , , , , , , , , , , , , ,
533.336084529995,180.629826636347,-352.706257893648,-503.05829887193,209.606303747404,417.083531850553,383.530774834854,367.325572778916,348.104294363349,-356.982955583171,443.021171211821,-86.038215628649, , , , , , , , , , , , , , , , , , , , , , , , , , , , , , , , , , , , , , , , , , , , , , , , , , , , , , , , , , , , ,
543.132957351889,195.645041205851,-347.487916146038,-512.148970035966,211.422783423958,426.90383417376,398.012735256099,380.855041533608,359.171670229146,-369.38899927887,445.310436748964,-75.9214374700921, , , , , , , , , , , , , , , , , , , , , , , , , , , , , , , , , , , , , , , , , , , , , , , , , , , , , , , , , , , , ,
555.333368808479,210.900352541802,-344.433016266676,-520.791046574659,213.233101493523,436.767042774791,412.751720198316,394.596125934846,369.422879922446,-383.116860675141,449.883192537578,-66.7663318624359, , , , , , , , , , , , , , , , , , , , , , , , , , , , , , , , , , , , , , , , , , , , , , , , , , , , , , , , , , , , ,
565.051804249664,227.332080999341,-337.719723250322,-528.998406896251,215.107543690446,446.690890903807,427.75593935278,408.557472361084,379.713304185122,-396.191942624502,451.385763749993,-55.1938211254896, , , , , , , , , , , , , , , , , , , , , , , , , , , , , , , , , , , , , , , , , , , , , , , , , , , , , , , , , , , , ,
576.48646342852,244.215046353689,-332.27141707483,-536.803120628358,217.108490311183,456.683291591921,443.021317930819,422.737259088579,391.030030359751,-410.350754891105,454.378940251675,-44.0281853605695, , , , , , , , , , , , , , , , , , , , , , , , , , , , , , , , , , , , , , , , , , , , , , , , , , , , , , , , , , , , ,
586.483524028676,261.53588059752,-324.947643431156,-544.250780047073,219.28684546243,466.741602663353,458.531426729376,437.123021657751,402.836290281233,-424.009702313099,455.715583729916,-31.7058814168164, , , , , , , , , , , , , , , , , , , , , , , , , , , , , , , , , , , , , , , , , , , , , , , , , , , , , , , , , , , , ,
597.499060043523,279.26518388083,-318.233876162693,-551.395262025043,221.679558101755,476.853028586524,474.258475871434,451.692233703948,413.756205873287,-438.382121962177,457.866468103108,-19.4843461409305, , , , , , , , , , , , , , , , , , , , , , , , , , , , , , , , , , , , , , , , , , , , , , , , , , , , , , , , , , , , ,
608.867683391043,296.751886565038,-312.115796826004,-558.293318384144,224.467203528881,486.996084356174,490.165230742934,466.41350826311,426.296323660187,-452.809784978041,460.491740108524,-7.68195513048164, , , , , , , , , , , , , , , , , , , , , , , , , , , , , , , , , , , , , , , , , , , , , , , , , , , , , , , , , , , , ,
619.823026014783,314.811644707945,-305.011381306837,-564.99933615929,228.029016147177,497.14293115018,506.207620359923,481.248248909299,437.436772716227,-467.317335361364,462.41720366081,4.90013170055539, , , , , , , , , , , , , , , , , , , , , , , , , , , , , , , , , , , , , , , , , , , , , , , , , , , , , , , , , , , , ,
630.335882805608,333.314431419173,-297.021451386434,-571.560562289854,231.147417346656,507.262308722013,522.337766571578,496.152576851184,447.618252046622,-481.825157112391,463.678667096021,18.1464900163706, , , , , , , , , , , , , , , , , , , , , , , , , , , , , , , , , , , , , , , , , , , , , , , , , , , , , , , , , , , , ,
640.377439593273,351.038213812047,-289.339225781225,-578.013061256453,234.716433632339,517.322731970113,538.507153048128,511.079376870666,457.705449554109,-495.707826702661,464.85833268725,30.8494940154122, , , , , , , , , , , , , , , , , , , , , , , , , , , , , , , , , , , , , , , , , , , , , , , , , , , , , , , , , , , , ,
648.806112082216,369.439139534676,-279.366972547539,-584.378673042797,238.229763866763,527.295585266814,554.669652480777,525.980322715237,467.757047664969,-509.122625808446,464.086542314878,45.0360834935695, , , , , , , , , , , , , , , , , , , , , , , , , , , , , , , , , , , , , , , , , , , , , , , , , , , , , , , , , , , , ,
657.667388314514,386.765134678956,-270.902253635557,-590.663246432164,242.009683688551,537.157739870241,570.784129118661,540.807751155945,477.607267265288,-522.216261496735,464.284820975036,57.9314405217006, , , , , , , , , , , , , , , , , , , , , , , , , , , , , , , , , , , , , , , , , , , , , , , , , , , , , , , , , , , , ,
665.694553643286,403.88958202813,-261.804971615156,-596.856400957104,245.82023527141,546.893347922306,586.816345613737,555.516259753161,488.739384890053,-534.792067835709,463.749762629221,71.0423052064883, , , , , , , , , , , , , , , , , , , , , , , , , , , , , , , , , , , , , , , , , , , , , , , , , , , , , , , , , , , , ,
673.047581864329,420.782727478404,-252.264854385924,-602.932985257199,249.987107293767,556.494540651545,602.739947169648,570.063920935476,498.647067958799,-546.915154671367,462.656218125127,84.2589365462409, , , , , , , , , , , , , , , , , , , , , , , , , , , , , , , , , , , , , , , , , , , , , , , , , , , , , , , , , , , , ,
680.574563323747,437.435129338474,-243.139433985272,-608.856243818325,253.898945909487,565.960874435166,618.536376706727,584.413041394551,510.215709973865,-559.004846331111,461.85699865451,97.1478476766022, , , , , , , , , , , , , , , , , , , , , , , , , , , , , , , , , , , , , , , , , , , , , , , , , , , , , , , , , , , , ,
687.569858729312,453.855453985161,-233.71440474415,-614.58249816035,257.940921978838,575.297511253369,634.193685261347,598.530444302275,521.775743317751,-570.712656357237,460.642131736731,110.070524620507, , , , , , , , , , , , , , , , , , , , , , , , , , , , , , , , , , , , , , , , , , , , , , , , , , , , , , , , , , , , ,
694.072605388874,470.066645765871,-224.005959623003,-620.066924620019,262.240003017922,584.512273409637,649.70433189374,612.387301282581,530.864171439267,-582.069625577373,459.039282505939,123.030343071435, , , , , , , , , , , , , , , , , , , , , , , , , , , , , , , , , , , , , , , , , , , , , , , , , , , , , , , , , , , , ,
700.129196474896,486.100778828567,-214.028417646329,-625.26980758233,266.842456995601,593.611860341239,665.062198685553,625.958585654435,539.767070608498,-593.114987651732,457.078807060613,136.03618059112, , , , , , , , , , , , , , , , , , , , , , , , , , , , , , , , , , , , , , , , , , , , , , , , , , , , , , , , , , , , ,
705.79080283625,501.993019263162,-203.797783573087,-630.162508387669,270.56075824455,602.597638975546,680.259152238306,639.222254358884,548.720181359639,-603.891911049706,454.794293204668,149.097617845039, , , , , , , , , , , , , , , , , , , , , , , , , , , , , , , , , , , , , , , , , , , , , , , , , , , , , , , , , , , , ,
710.323077480285,517.775228694326,-192.547848785958,-634.732355602964,274.215176819361,611.461497032323,695.281542974325,652.158284190683,557.440614638905,-614.049153087306,451.435463133121,162.613689954186, , , , , , , , , , , , , , , , , , , , , , , , , , , , , , , , , , , , , , , , , , , , , , , , , , , , , , , , , , , , ,
714.676434912885,533.469784360923,-181.206650551961,-638.985751978157,277.907283713554,620.182263319737,710.107042382633,664.747678532913,567.985121768337,-624.073109636904,447.941542732423,176.131566904482, , , , , , , , , , , , , , , , , , , , , , , , , , , , , , , , , , , , , , , , , , , , , , , , , , , , , , , , , , , , ,
718.906550271933,549.084147311181,-169.822402960752,-642.948999582214,281.124546409471,628.723145158024,724.702180336228,676.971525710377,577.933882947989,-633.995348791557,444.364476616342,189.630872175216, , , , , , , , , , , , , , , , , , , , , , , , , , , , , , , , , , , , , , , , , , , , , , , , , , , , , , , , , , , , ,
723.054129349851,564.606592359211,-158.447536990639,-646.666630965779,284.580648469993,637.030523531347,739.020869047766,688.810149264391,586.076521838711,-643.830360854531,440.750833170245,203.079527684287, , , , , , , , , , , , , , , , , , , , , , , , , , , , , , , , , , , , , , , , , , , , , , , , , , , , , , , , , , , , ,
727.139162691802,580.003374243696,-147.135788448106,-650.19734254216,287.492744517059,645.034308625115,753.004103659121,700.242369311047,593.835151689886,-653.57126846775,437.137475569954,216.433792897796, , , , , , , , , , , , , , , , , , , , , , , , , , , , , , , , , , , , , , , , , , , , , , , , , , , , , , , , , , , , ,
731.156253560549,595.217500319123,-135.938753241425,-653.607897694016,289.609356163248,652.649918162732,766.580928688274,711.244899793643,600.664867169233,-663.186876939836,433.547503400987,229.63937353885, , , , , , , , , , , , , , , , , , , , , , , , , , , , , , , , , , , , , , , , , , , , , , , , , , , , , , , , , , , , ,
735.071460476641,610.169221232939,-124.902239243701,-656.965569214333,291.090621368438,659.781807702281,779.67065802842,721.791919337219,607.316177998275,-672.620340854791,429.986849860171,242.63349099462, , , , , , , , , , , , , , , , , , , , , , , , , , , , , , , , , , , , , , , , , , , , , , , , , , , , , , , , , , , , ,
738.82108842514,624.758292834728,-114.062795590412,-660.329826460138,291.961531736978,666.328349098134,792.186225797707,731.85484787014,613.245658953263,-681.789690629935,426.441942007776,255.347748622159, , , , , , , , , , , , , , , , , , , , , , , , , , , , , , , , , , , , , , , , , , , , , , , , , , , , , , , , , , , , ,
742.312769687193,638.867955463377,-103.444814223815,-663.744056756087,292.337710178885,672.18771699583,804.038425478009,741.402331133357,618.680438626984,-690.590362575285,422.878791955504,267.711570619782, , , , , , , , , , , , , , , , , , , , , , , , , , , , , , , , , , , , , , , , , , , , , , , , , , , , , , , , , , , , ,
745.428993888483,652.370418975979,-93.0585749125043,-667.228141167113,293.124077456145,677.264319342064,815.140683388862,750.400396521136,623.596432427711,-698.899706432231,419.243784400494,279.655922031738, , , , , , , , , , , , , , , , , , , , , , , , , , , , , , , , , , , , , , , , , , , , , , , , , , , , , , , , , , , , ,
748.033016144481,665.133472096343,-82.8995440481381,-670.772664090178,292.06339868802,681.475225600494,825.413934154496,758.812715089175,627.974477050968,-706.583244120412,415.46628009631,291.116964024103, , , , , , , , , , , , , , , , , , , , , , , , , , , , , , , , , , , , , , , , , , , , , , , , , , , , , , , , , , , , ,
749.97682212593,677.02768692266,-72.9491352032698,-674.093089461707,290.384987542415,684.756024340622,834.791132664372,766.600891127199,631.800456660993,-713.502254524295,411.4629786646,302.039275859696, , , , , , , , , , , , , , , , , , , , , , , , , , , , , , , , , , , , , , , , , , , , , , , , , , , , , , , , , , , , ,
751.110577711372,687.933582389211,-63.1769953221602,-677.249215262813,288.065056518858,687.065574229096,843.220946255679,773.724697987277,635.06498265874,-719.522080050292,407.143786516766,312.378293533527, , , , , , , , , , , , , , , , , , , , , , , , , , , , , , , , , , , , , , , , , , , , , , , , , , , , , , , , , , , , ,
751.292779883112,697.748071404568,-53.5447084785444,-680.475773605051,285.171176202025,688.389181893449,850.670217536058,780.142187162017,637.762577341545,-724.52042564384,402.418744180829,322.101681463013, , , , , , , , , , , , , , , , , , , , , , , , , , , , , , , , , , , , , , , , , , , , , , , , , , , , , , , , , , , , ,
750.400213810712,706.389578798337,-44.0106350123737,-683.245566667826,282.198291899593,688.739841132708,857.124876258368,785.809623696277,639.890359505283,-728.394896304525,397.205424411543,331.189471892983, , , , , , , , , , , , , , , , , , , , , , , , , , , , , , , , , , , , , , , , , , , , , , , , , , , , , , , , , , , , ,
748.336842540139,713.801387129265,-34.535455410874,-685.825839256859,278.101773832881,688.157309942686,862.589117523744,790.681250033738,641.446297213256,-731.069114834702,391.436148975507,339.632965859196, , , , , , , , , , , , , , , , , , , , , , , , , , , , , , , , , , , , , , , , , , , , , , , , , , , , , , , , , , , , ,
745.040896761561,719.953007665569,-25.0878890959918,-687.561308625073,273.892350108418,686.704989674927,867.08285144471,794.708949980015,642.427178439755,-732.496952213565,385.064392928776,347.43255928479, , , , , , , , , , , , , , , , , , , , , , , , , , , , , , , , , , , , , , , , , , , , , , , , , , , , , , , , , , , , ,
740.489637237721,724.839619838427,-15.6500173992935,-688.771594506724,269.175564497696,684.464788692399,870.637637464408,797.841958538567,642.826543031039,-732.664628538074,378.069827318507,354.594801219568, , , , , , , , , , , , , , , , , , , , , , , , , , , , , , , , , , , , , , , , , , , , , , , , , , , , , , , , , , , , ,
734.701458748586,728.479812054086,-6.22164669450007,-689.04527576837,264.678562941788,681.530373256706,873.291501800009,800.026814669583,642.632889941003,-731.590635401337,370.461552721543,361.129082679794, , , , , , , , , , , , , , , , , , , , , , , , , , , , , , , , , , , , , , , , , , , , , , , , , , , , , , , , , , , , ,
727.735153066125,730.911964258747,3.17681119262267,-688.105424643264,260.473450608111,677.999410260077,875.083173962012,801.207763939309,641.828489150088,-729.323558662436,362.279170936751,367.044387725686, , , , , , , , , , , , , , , , , , , , , , , , , , , , , , , , , , , , , , , , , , , , , , , , , , , , , , , , , , , , ,
719.686281807371,732.189659826923,12.5033780195526,-685.730094253099,256.026103122373,673.965569177758,876.046362779297,801.327784732029,640.389071653345,-725.937970817148,353.591451893909,372.346518923239, , , , , , , , , , , , , , , , , , , , , , , , , , , , , , , , , , , , , , , , , , , , , , , , , , , , , , , , , , , , ,
710.680799126915,732.376533815948,21.6957346890327,-682.432130713782,251.469585600764,669.511124234696,876.204704810852,800.330331990426,638.284545035428,-721.528666471432,344.492532218942,377.036134252491, , , , , , , , , , , , , , , , , , , , , , , , , , , , , , , , , , , , , , , , , , , , , , , , , , , , , , , , , , , , ,
700.866346373985,731.540959776939,30.6746134029544,-677.978691145603,247.272084612114,664.700916783807,875.567923579147,798.161759602508,635.480703518077,-716.203653075462,335.095866485515,381.107786589948, , , , , , , , , , , , , , , , , , , , , , , , , , , , , , , , , , , , , , , , , , , , , , , , , , , , , , , , , , , , ,
690.401975540571,729.750937200216,39.348961659646,-672.202907142333,243.548752330477,659.578195320134,874.129536389062,794.774216690789,631.941708950978,-710.076456370394,325.526506940463,384.549949429932, , , , , , , , , , , , , , , , , , , , , , , , , , , , , , , , , , , , , , , , , , , , , , , , , , , , , , , , , , , , ,
679.447337077467,727.069479273525,47.6221421960585,-665.116034430961,240.026400749246,654.162532585624,871.866197353402,790.128672460714,627.632970166552,-703.258408175496,315.912597440704,387.345810734793, , , , , , , , , , , , , , , , , , , , , , , , , , , , , , , , , , , , , , , , , , , , , , , , , , , , , , , , , , , , ,
668.152466781764,723.550744747362,55.3982779655989,-657.221100470492,236.696655036954,648.449739500512,868.738550514162,784.197668304,622.523989479134,-695.851605764563,306.377094408083,389.474511356482, , , , , , , , , , , , , , , , , , , , , , , , , , , , , , , , , , , , , , , , , , , , , , , , , , , , , , , , , , , , ,
656.649160459493,719.23711337959,62.5879529200968,-648.167589759263,233.622742930598,642.413514089642,864.693333017683,776.967441220009,616.590784300608,-687.943136919542,297.030603769698,390.912533149845, , , , , , , , , , , , , , , , , , , , , , , , , , , , , , , , , , , , , , , , , , , , , , , , , , , , , , , , , , , , ,
645.04458039773,714.157349651297,69.1127692535674,-637.881638902585,230.383765546712,636.008476320169,859.666422072379,768.439178295935,609.817598566424,-679.600965024514,287.965905572082,391.635059452433, , , , , , , , , , , , , , , , , , , , , , , , , , , , , , , , , , , , , , , , , , , , , , , , , , , , , , , , , , , , ,
633.417334965302,708.325919637034,74.9085846717325,-626.726481964806,227.707869173435,629.174216012619,853.58654059712,758.629299526857,602.197754453988,-670.871627301168,279.254375146785,391.617252154384, , , , , , , , , , , , , , , , , , , , , , , , , , , , , , , , , , , , , , , , , , , , , , , , , , , , , , , , , , , , ,
621.815951728586,701.743430432581,79.9274787039959,-615.12108830778,224.605898530928,621.839991967047,846.379386766425,747.568791710903,593.7336350965,-661.779691080584,270.944236512295,390.83545456829, , , , , , , , , , , , , , , , , , , , , , , , , , , , , , , , , , , , , , , , , , , , , , , , , , , , , , , , , , , , ,
610.259478474231,694.398069714752,84.1385912405214,-602.856055954954,221.701383670069,613.929748748332,837.971992934696,735.301718940419,584.435920479388,-652.328774094492,263.060443616855,389.268330477638, , , , , , , , , , , , , , , , , , , , , , , , , , , , , , , , , , , , , , , , , , , , , , , , , , , , , , , , , , , , ,
598.739866024261,686.267851740533,87.5279857162727,-589.924465156225,218.74646183849,605.367155947289,828.297132751781,721.883116591334,574.322309244902,-642.503858882398,255.605940153994,386.897918728404, , , , , , , , , , , , , , , , , , , , , , , , , , , , , , , , , , , , , , , , , , , , , , , , , , , , , , , , , , , , ,
587.225759770461,677.323437769116,90.0976779986551,-576.111342384927,215.361639165546,596.080421652365,817.297590313911,707.376534486022,563.416033121929,-632.274598769789,248.564040885903,383.710557883887, , , , , , , , , , , , , , , , , , , , , , , , , , , , , , , , , , , , , , , , , , , , , , , , , , , , , , , , , , , , ,
575.667321513103,667.531298918468,91.8639774053651,-562.150694999655,211.964700140917,586.006686834073,804.930098614158,691.851522109692,551.744490566939,-621.599310215786,241.901672053869,379.697638161918, , , , , , , , , , , , , , , , , , , , , , , , , , , , , , , , , , , , , , , , , , , , , , , , , , , , , , , , , , , , ,
564.001713126381,656.857023167213,92.8553100408323,-547.860094502006,208.447744012372,575.095864882786,791.168756017638,675.381332402744,539.338279534052,-610.429368146797,235.573201542775,374.856166604024, , , , , , , , , , , , , , , , , , , , , , , , , , , , , , , , , , , , , , , , , , , , , , , , , , , , , , , , , , , , ,
552.158897455236,645.268617015583,93.1097195603477,-533.224587845849,204.305186373006,563.313833711685,776.007738271447,658.041054998551,526.230799099961,-598.71375723541,229.524588947444,369.189168287967, , , , , , , , , , , , , , , , , , , , , , , , , , , , , , , , , , , , , , , , , , , , , , , , , , , , , , , , , , , , ,
540.067436394098,632.739685964247,92.6722495701495,-518.333026277617,199.931895453781,550.644892907936,759.463132051907,639.906282544788,512.458438969621,-586.403561179173,223.697593411974,362.705967767199, , , , , , , , , , , , , , , , , , , , , , , , , , , , , , , , , , , , , , , , , , , , , , , , , , , , , , , , , , , , ,
527.659985186909,619.252377920227,91.5923927333189,-503.210178549397,195.34326658346,537.093361252256,741.573721321235,621.05228846671,498.061223475025,-573.456181553569,218.033796226795,355.422385326774, , , , , , , , , , , , , , , , , , , , , , , , , , , , , , , , , , , , , , , , , , , , , , , , , , , , , , , , , , , , ,
514.878214644118,604.799955866783,89.9217412226655,-487.852166732926,190.641930453966,522.684149923183,722.40057685772,601.553587622932,483.08366583917,-559.839085255451,212.478236710726,347.360848544726, , , , , , , , , , , , , , , , , , , , , , , , , , , , , , , , , , , , , , , , , , , , , , , , , , , , , , , , , , , , ,
501.676946250788,589.388859739496,87.7119134887086,-472.12829847516,185.42945246183,507.462164340956,702.02536427058,581.483698742164,467.575549031651,-545.532902995142,206.98251638104,338.550386614103, , , , , , , , , , , , , , , , , , , , , , , , , , , , , , , , , , , , , , , , , , , , , , , , , , , , , , , , , , , , ,
488.027322951426,573.040124614973,85.0128016635479,-455.854712777787,180.040425526076,491.49048740873,680.547410592127,560.914941082644,451.592381962238,-530.5337237832,201.507260643939,329.026463139262, , , , , , , , , , , , , , , , , , , , , , , , , , , , , , , , , , , , , , , , , , , , , , , , , , , , , , , , , , , , ,
473.918838210177,555.790029195074,81.8711909848968,-439.718857091852,174.473585884415,474.847444286757,658.079726695933,539.91815486953,435.19535827966,-514.854433702626,196.02382361264,318.830610089986, , , , , , , , , , , , , , , , , , , , , , , , , , , , , , , , , , , , , , , , , , , , , , , , , , , , , , , , , , , , ,
459.360058198311,537.689868894827,78.329810696517,-423.569798563598,168.68054771211,457.622786351122,634.7443227918,518.562303129517,418.450740360192,-498.52496354657,190.515123750897,308.009839795673, , , , , , , , , , , , , , , , , , , , , , , , , , , , , , , , , , , , , , , , , , , , , , , , , , , , , , , , , , , , ,
444.377959014164,518.804812737395,74.4268537232311,-406.967110641357,162.984461277621,439.913324387786,610.667241892642,496.913976801246,403.18534137708,-481.59138587578,184.975552645467,296.615833230314, , , , , , , , , , , , , , , , , , , , , , , , , , , , , , , , , , , , , , , , , , , , , , , , , , , , , , , , , , , , ,
429.015944673692,499.211906121876,70.1959614481851,-390.295549682721,157.661854857587,421.818382458839,585.973759814739,475.036879882448,386.639848596719,-464.113925397784,179.409991612753,284.703933785032, , , , , , , , , , , , , , , , , , , , , , , , , , , , , , , , , , , , , , , , , , , , , , , , , , , , , , , , , , , , ,
413.330746232662,478.997376302133,65.666630069472,-373.895155132053,151.725501744976,403.435438012984,560.784158799565,452.991400667209,371.073402300834,-446.164061267398,173.832058081595,272.332003185804, , , , , , , , , , , , , , , , , , , , , , , , , , , , , , , , , , , , , , , , , , , , , , , , , , , , , , , , , , , , ,
397.388502430422,458.253456277709,60.8649538472878,-357.618961645267,145.829636380461,384.856262065548,535.210381465683,430.83436284103,355.061827458192,-427.820979354066,168.261774291567,259.5592050625, , , , , , , , , , , , , , , , , , , , , , , , , , , , , , , , , , , , , , , , , , , , , , , , , , , , , , , , , , , , ,
381.260400022512,437.074979046838,55.8145790243265,-341.417163756997,140.00204693815,366.163781576718,509.353733142072,408.61900215008,337.964031704027,-409.167689534675,162.722910499093,246.444779035583, , , , , , , , , , , , , , , , , , , , , , , , , , , , , , , , , , , , , , , , , , , , , , , , , , , , , , , , , , , , ,
365.018305090172,415.556025963365,50.5377208731937,-325.46075669474,134.260586050162,347.429775729592,483.303656198555,386.395155738928,320.621382042749,-390.287165526769,157.240292108489,233.04687341828, , , , , , , , , , , , , , , , , , , , , , , , , , , , , , , , , , , , , , , , , , , , , , , , , , , , , , , , , , , , ,
348.730826031461,393.78693382749,45.0561077960297,-309.801584937522,128.612359794391,328.713421742749,457.137482536127,364.209608329895,304.065690178473,-371.258879929476,151.837359117716,219.421520811761, , , , , , , , , , , , , , , , , , , , , , , , , , , , , , , , , , , , , , , , , , , , , , , , , , , , , , , , , , , , ,
332.4602049541,371.851954492068,39.3917495379686,-294.484352353936,123.053488963264,310.060649795974,430.921000102295,342.106525329984,287.029179337338,-352.156079723084,146.534227708066,205.621852015019, , , , , , , , , , , , , , , , , , , , , , , , , , , , , , , , , , , , , , , , , , , , , , , , , , , , , , , , , , , , ,
316.260340914774,349.827803612618,33.5674626978444,-279.61386267225,117.569410884388,291.504249420426,404.70964293381,320.127913273349,270.215167037079,-333.044072263696,141.346439108465,191.697633155232, , , , , , , , , , , , , , , , , , , , , , , , , , , , , , , , , , , , , , , , , , , , , , , , , , , , , , , , , , , , ,
