-117.127204581424,-97.9235629677532,19.203641613671,13.5183940282503,-89.9721700674265,-111.568322128506,-214.935749133558,-215.133714218074,-165.014992962252,107.525383774589,-68.1654230975475,-39.3599606770412,642,664,664,642,664,610,664,646,648,610,610,660,914,886,866,866,902,912,886,888,888,674,891,884,1018,1041,1001,1034,1035,1036,1042,1049,1043,966,1037,1038,1250,1301,1351,1313,1251,1255,1269,1273,1278,1281,1274,1331,1079,1100,1101,1079,1100,1028,1100,1082,1084,1028,1028,1097,
-117.127204581424,-97.9235629677532,19.203641613671,13.5183940282503,-89.9721700674265,-111.568322128506,-214.935749133558,-215.133714218074,-165.014992962252,107.525383774589,-68.1654230975475,-39.3599606770412,1668,1621,1622,1668,1621,1567,1621,1605,1605,1567,1567,1618,934,924,923,912,914,921,925,928,930,811,922,924,1049,1061,1057,1057,1057,1058,1058,1067,1071,1027,1075,1060,1340,1373,1403,1372,1353,1355,1361,1366,1368,1367,1358,1388,2041,2062,2062,2041,2062,2026,2062,2048,2046,2026,2026,2059,
-117.127204581424,-97.9235629677532,19.203641613671,13.5183940282503,-89.9721700674265,-111.568322128506,-214.935749133558,-215.133714218074,-165.014992962252,107.525383774589,-68.1654230975475,-39.3599606770412,2560,2581,2582,2560,2581,2528,2581,2569,2565,2528,2528,2578,965,939,969,933,999,1003,985,987,987,933,958,983,1078,1098,1081,1078,1079,1083,1098,1099,1100,1099,1102,1096,1388,1420,1457,1445,1423,1421,1415,1414,1415,1445,1401,1436,2998,3020,3021,2998,3020,2950,3020,3010,3004,2950,2950,3017,
-117.127204581424,-97.9235629677532,19.203641613671,13.5183940282503,-89.9721700674265,-111.568322128506,-214.935749133558,-215.133714218074,-165.014992962252,107.525383774589,-68.1654230975475,-39.3599606770412,3542,3564,3564,3542,3564,3510,3564,3550,3547,3510,3510,3560,1892,985,1846,1828,1888,1872,1825,1845,1846,1759,1848,1851,1116,1141,1110,1100,1105,1117,1121,1122,1141,1114,1135,1143,2243,2261,2296,2243,2228,2212,2208,2237,2242,2238,2231,2295,4005,4027,4027,4005,4027,3991,4027,4009,4010,3991,3991,4023,
-117.127204581424,-97.9235629677532,19.203641613671,13.5183940282503,-89.9721700674265,-111.568322128506,-214.935749133558,-215.133714218074,-165.014992962252,107.525383774589,-68.1654230975475,-39.3599606770412,4553,4574,4575,4553,4574,4523,4574,4556,4558,4523,4523,4571,1913,1856,1888,1875,1898,1883,1868,1890,1892,1806,1887,1889,1144,1173,1128,1122,1169,1197,1170,1166,1169,1936,1168,1239,2326,2337,2370,2330,2338,2317,2304,2327,2329,2331,2319,2347,5021,5042,5043,5021,5042,4975,5042,5024,5026,4975,4975,5039,
-117.127204581424,-97.9235629677532,19.203641613671,13.5183940282503,-89.9721700674265,-111.568322128506,-214.935749133558,-215.133714218074,-165.014992962252,107.525383774589,-68.1654230975475,-39.3599606770412,5581,5545,5546,5581,5545,5469,5545,5532,5529,5469,5469,5542,1959,1890,1928,1895,1944,1960,1924,1944,1945,1890,1915,1941,2009,2003,1148,1997,2017,1998,1984,2011,2004,2025,1999,2001,2373,2383,2458,2407,2405,2383,2359,2375,2376,2402,2363,2393,5947,5968,5969,5947,5968,5883,5968,5961,5952,5883,5883,5966,
-117.127204581424,-97.9235629677532,19.203641613671,13.5183940282503,-89.9721700674265,-111.568322128506,-214.935749133558,-215.133714218074,-159.902873852143,107.525383774589,-68.1654230975475,-39.3599606770412,6442,6463,6464,6442,6463,6402,6463,6454,6447,6402,6402,6460,2848,1943,2805,2784,2829,2832,2837,2805,2806,2592,2784,2813,2031,2023,1239,2018,2039,2019,2001,2030,2033,2060,2038,2021,3200,3211,3261,3294,3188,3172,3220,3193,3199,3199,3138,3228,6856,6878,6878,6856,6878,6842,6878,6868,6862,6842,6842,6875,
-117.127204581424,-97.9235629677532,19.203641613671,13.5183940282503,-89.9721700674265,-111.568322128506,-207.178393276858,-215.133714218074,-154.904211107984,107.525383774589,-68.1654230975475,-39.3599606770412,7337,7358,7359,7337,7358,7306,7358,7344,7342,7306,7306,7356,2874,2822,2845,2832,2836,2842,2865,2849,2850,2646,2826,2846,2061,2059,2000,2040,2061,2045,2040,2061,2061,2089,2064,2058,3283,3292,3326,3336,3274,3275,3300,3285,3286,3287,3222,3303,7738,7759,7760,7738,7759,7690,7759,7741,7743,7690,7690,7756,
-117.127204581424,-97.9235629677532,19.203641613671,13.5183940282503,-88.119667872702,-98.6819399987928,-198.362834658936,-215.133714218074,-147.414735236517,107.525383774589,-68.1654230975475,-39.3599606770412,8236,8258,8258,8236,8258,8206,8258,8239,8242,8206,8206,8254,2915,2847,2892,2851,2872,2920,2936,2904,2905,2685,2851,2901,2101,2105,2018,2062,2085,2079,2063,2083,2104,2884,2092,2107,3332,3345,3327,3363,3339,3339,3355,3335,3335,3363,3266,3360,8654,8676,8676,8654,8676,8641,8676,8657,8660,8641,8641,8673,
-117.127204581424,-97.9235629677532,19.203641613671,13.5183940282503,-85.5592637615603,-85.1045112532942,-189.156312033462,-215.133714218074,-145.035175770455,107.525383774589,-68.1654230975475,-39.3599606770412,9166,9329,9329,9166,9329,9153,9329,9174,9311,9153,9153,9324,3855,2902,3820,3811,3837,3840,3820,3820,3820,2851,3830,3816,2192,2140,2047,2079,2152,2150,2115,2130,2133,2949,2162,2144,4213,4220,3367,4049,4203,4186,4203,4203,4209,4213,4213,4241, , , , , , , , , , , , ,
-117.127204581424,-97.9235629677532,19.203641613671,13.5183940282503,-83.874578543436,-71.1664623951161,-187.495743794532,-215.133714218074,-142.057791032545,107.525383774589,-68.1654230975475,-39.3599606770412, , , , , , , , , , , , ,3883,3818,3865,3840,3843,3849,3854,3857,3859,3830,3849,3851,2961,2960,2072,2953,2954,2956,2982,2969,2963,3018,2900,2958,4292,4300,4288,4303,4280,4282,4289,4293,4295,4296,4287,4313, , , , , , , , , , , , ,
-117.127204581424,-97.9235629677532,19.203641613671,13.5183940282503,-83.0633913732612,-69.1113936824595,-180.872647296606,-215.133714218074,-141.068015395541,107.525383774589,-68.1654230975475,-39.3599606770412, , , , , , , , , , , , ,3929,3853,3919,3865,3887,3934,3919,3919,3919,3857,3897,3872,2991,2980,2089,2975,2976,2976,2997,2989,2991,3033,2940,2979,4340,4351,4352,4377,4347,4347,4343,4343,4343,4377,4331,4364, , , , , , , , , , , , ,
-117.127204581424,-97.9235629677532,19.203641613671,13.5183940282503,-83.0909719607149,-70.7015043980157,-182.730095768774,-215.133714218074,-142.97007824834,107.525383774589,-68.1654230975475,-39.3599606770412, , , , , , , , , , , , ,4886,3872,4831,4809,4849,4852,4830,4830,4831,3897,4843,3915,3020,3017,2111,2997,2999,3003,3038,3019,3020,3901,2967,3016,5224,5241,4353,5060,5213,5197,5213,5217,5226,5226,5226,5266, , , , , , , , , , , , ,
-119.764323686352,-97.9235629677532,21.8407607185992,13.5183940282503,-83.8930869832633,-75.3354761550995,-181.808767294602,-215.133714218074,-141.652243718807,108.843943327053,-70.8025422024757,-38.0414011245771, , , , , , , , , , , , ,4897,3917,4867,4856,4860,4865,4869,4871,4874,4675,4866,4827,3058,3061,2200,3020,3025,3037,3061,3043,3061,3990,2997,3062,5306,5315,4403,5317,5296,5299,5304,5309,5311,5310,5301,5328, , , , , , , , , , , , ,
-120.964031459023,-97.9235629677532,23.0404684912695,13.5183940282503,-85.3808358517953,-82.3716175867498,-186.362455963119,-215.133714218074,-148.465433882102,109.443797213388,-72.002249975146,-37.441547238242, , , , , , , , , , , , ,4940,4829,4898,4876,4897,4913,4929,4929,4930,4712,4910,4867,3187,3093,2952,3040,3113,3099,3110,3087,3089,4025,3040,3097,5355,5367,5328,5388,5364,5364,5358,5358,5357,5390,5347,5380, , , , , , , , , , , , ,
-118.553610325168,-97.9235629677532,20.630047357415,13.5183940282503,-87.4468447890943,-91.1623562835004,-194.509929043073,-215.133714218074,-148.025004316469,108.238586646461,-69.5918288412915,-38.6467578051692, , , , , , , , , , , , ,5806,4868,5747,5741,5778,5788,5769,5769,5770,4878,5757,4884,3966,3967,2978,3961,3961,3962,3968,3975,3970,4041,3963,3965,6156,6139,5354,5984,6120,6136,6152,6152,6153,5981,6140,6191, , , , , , , , , , , , ,
-117.127204581424,-97.9235629677532,19.203641613671,13.5183940282503,-89.9721700674265,-101.085148604641,-203.273954284369,-215.133714218074,-153.354493535712,107.525383774589,-68.1654230975475,-39.3599606770412, , , , , , , , , , , , ,5822,4887,5794,5781,5786,5791,5794,5797,5799,5533,5792,4926,3997,3988,3008,3982,3983,3983,3984,3994,3997,4905,4002,3986,6232,6223,5442,6237,6223,6222,6227,6231,6234,6236,6225,6252, , , , , , , , , , , , ,
-117.127204581424,-97.9235629677532,19.203641613671,13.5183940282503,-89.9721700674265,-111.568322128506,-212.317135076661,-215.133714218074,-156.635277469514,107.525383774589,-68.1654230975475,-39.3599606770412, , , , , , , , , , , , ,5872,4928,5837,5808,5836,5820,5868,5868,5869,5623,5824,5751,4027,4024,3031,4004,4006,4009,4024,4026,4026,4974,4029,4022,6278,6271,6202,6320,6289,6287,6282,6282,6282,6304,6269,6298, , , , , , , , , , , , ,
-117.127204581424,-97.9235629677532,19.203641613671,13.5183940282503,-89.9721700674265,-111.568322128506,-214.935749133558,-213.955356755849,-157.232741965883,107.525383774589,-68.1654230975475,-39.3599606770412, , , , , , , , , , , , ,6711,5740,6656,6698,6655,6690,6655,6655,6639,5654,6658,5795,4064,4068,3089,4027,4032,4043,4047,4049,4067,5041,4060,4069,7049,7080,6275,6902,7038,7073,7038,7070,7054,6891,7041,7082, , , , , , , , , , , , ,
-117.127204581424,-97.9235629677532,19.203641613671,13.5183940282503,-89.9721700674265,-111.568322128506,-214.935749133558,-209.964125002217,-165.014992962252,107.525383774589,-68.1654230975475,-39.3599606770412, , , , , , , , , , , , ,6731,5777,6701,6726,6690,6715,6702,6706,6691,5792,6700,5865,4190,4100,3976,4049,4118,4110,4096,4093,4094,5056,4179,4106,7140,7168,6276,7084,7131,7151,7138,7142,7127,7144,7135,7158, , , , , , , , , , , , ,
-114.228522059024,-87.6718737311116,26.5566483279125,13.5183940282503,-89.9721700674265,-111.568322128506,-214.935749133558,-206.545120305453,-165.014992962252,100.950197895068,-70.3925851934682,-30.5576127015997, , , , , , , , , , , , ,6765,5849,6755,6765,6722,6789,6754,6754,6738,6626,6725,6670,4984,4983,3998,4949,4977,4978,4983,4990,4985,5834,4958,4981,7184,7216,6357,7154,7194,7213,7191,7190,7173,7237,7175,7204, , , , , , , , , , , , ,
-112.072592449854,-80.3056285935704,31.7669638562835,12.6620431082704,-89.9721700674265,-111.568322128506,-214.935749133558,-205.119664414053,-165.014992962252,96.1891105217123,-71.9197781530685,-24.2693323686435, , , , , , , , , , , , ,7586,6696,7543,7529,7559,7569,7550,7550,7534,6648,7530,6702,5012,5003,4022,4998,4999,5000,5000,5009,5013,5882,5018,5001,7944,7947,7122,7781,7933,7937,7933,7933,7949,7773,7945,7970, , , , , , , , , , , , ,
-111.139203828262,-76.1515307977738,34.9876730304878,11.0769452473995,-89.9721700674265,-111.568322128506,-214.935749133558,-205.376576248602,-165.014992962252,93.6453673130179,-73.0634384293746,-20.5819288836431, , , , , , , , , , , , ,7601,6723,7581,7570,7571,7578,7585,7587,7602,6693,7580,6751,5042,5040,4051,5020,5022,5025,5040,5041,5042,5967,5045,5038,8021,8028,7182,8031,8013,8014,8019,8022,8025,8024,8017,8043, , , , , , , , , , , , ,
-111.925770506631,-75.2730981057375,36.6526724008935,10.0618269180382,-89.9721700674265,-111.568322128506,-214.935749133558,-207.178781266093,-165.014992962252,93.5994343061844,-74.2892214537621,-19.3102128524221, , , , , , , , , , , , ,7660,6786,7618,7596,7617,7653,7649,7649,7633,7370,7629,7542,5081,5085,4069,5042,5046,5060,5063,5064,5083,5981,5074,5086,8067,8078,7183,8108,8080,8078,8073,8071,8072,8109,8060,8087, , , , , , , , , , , , ,
-113.072401173079,-77.5151295864447,35.5572715866339,9.59406020656178,-89.9721700674265,-111.568322128506,-214.935749133558,-209.983809431891,-165.014992962252,95.2937653797619,-74.3148363798561,-20.9789289999055, , , , , , , , , , , , ,8492,7547,8450,8434,8450,8435,8450,8431,8466,7430,8494,7582,5180,5116,4088,5060,5138,5128,5113,5111,5111,6752,5161,5117,8843,8865,7223,8875,8833,8781,8833,8846,8854,8689,8845,8899, , , , , , , , , , , , ,
-115.707277065416,-82.552182448885,33.1550946165313,9.61227786441105,-89.9721700674265,-111.568322128506,-214.935749133558,-213.653272257079,-165.014992962252,99.1297297571509,-74.4311858409737,-24.698543916177, , , , , , , , , , , , ,8527,7583,8498,8488,8489,8443,8502,8484,8505,7448,8536,7647,5912,5892,4186,5881,5903,5904,5909,5917,5910,6841,5866,5908,8937,8947,8005,8946,8930,8877,8936,8920,8942,8941,8933,8962, , , , , , , , , , , , ,
-117.127204581424,-89.9378211777943,27.1893834036299,10.0276929156963,-89.9721700674265,-111.568322128506,-214.935749133558,-215.133714218074,-165.014992962252,103.532512879609,-72.1582939925269,-31.3742188870823, , , , , , , , , , , , ,8559,7649,8549,8503,8517,8497,8549,8530,8565,7565,8561,8469,5938,5912,4979,5924,5925,5926,5926,5937,5940,6876,5944,5927,8983,8993,8071,9007,8999,8945,8990,8971,8989,9041,8974,9001, , , , , , , , , , , , ,
-117.127204581424,-97.9235629677532,19.203641613671,10.7351430727143,-89.9721700674265,-111.568322128506,-214.935749133558,-215.133714218074,-165.014992962252,107.525383774589,-68.1654230975475,-39.3599606770412, , , , , , , , , , , , , ,8479, , , , , , , ,8334, ,8499,5968,5948,4999,5946,5948,5951,5966,5967,5968,6891,5971,5965, , ,8072, , , , , , , , , , , , , , , , , , , , , ,
-117.127204581424,-97.9235629677532,19.203641613671,11.6233254825785,-89.9721700674265,-111.568322128506,-214.935749133558,-215.133714218074,-165.014992962252,107.525383774589,-68.1654230975475,-39.3599606770412, , , , , , , , , , , , , ,8499, , , , , , , ,8450, ,8545,6007,5994,5023,5968,5971,5985,5989,5990,6010,7623,5998,5984, , ,8165, , , , , , , , , , , , , , , , , , , , , ,
-117.127204581424,-97.9235629677532,19.203641613671,12.5837925974675,-89.9721700674265,-111.568322128506,-214.935749133558,-215.133714218074,-165.014992962252,107.525383774589,-68.1654230975475,-39.3599606770412, , , , , , , , , , , , , ,8549, , , , , , , ,8485, , ,6100,6026,5052,5984,6071,6049,6041,6038,6039,7689,6048,5995, , ,8917, , , , , , , , , , , , , , , , , , , , , ,
-117.127204581424,-97.9235629677532,19.203641613671,13.4616742472314,-89.9721700674265,-111.568322128506,-214.935749133558,-215.133714218074,-165.014992962252,107.525383774589,-68.1654230975475,-39.3599606770412, , , , , , , , , , , , , , , , , , , , , , , , ,6816,6838,5069,6812,6812,6832,6820,6826,6803,7758,6813,6014, , ,8988, , , , , , , , , , , , , , , , , , , , , ,
-118.804526690422,-97.9235629677532,20.8809637226685,13.5183940282503,-89.9721700674265,-111.568322128506,-214.935749133558,-215.133714218074,-165.014992962252,108.364044829088,-69.842745206545,-38.5212996225424, , , , , , , , , , , , , , , , , , , , , , , , ,6848,6858,5090,6833,6834,6853,6835,6846,6831,7773,6853,6045, , ,8989, , , , , , , , , , , , , , , , , , , , , ,
-120.100123794698,-97.9235629677532,22.1765608269444,13.5183940282503,-89.9721700674265,-111.568322128506,-214.935749133558,-215.133714218074,-165.014992962252,109.011843381226,-71.1383423108209,-37.8735010704045, , , , , , , , , , , , , , , , , , , , , , , , ,6877,6895,5274,6855,6856,6880,6875,6877,6860,8550,6880,6815, , ,9085, , , , , , , , , , , , , , , , , , , , , ,
-120.468656475476,-97.9235629677532,22.5450935077227,13.5183940282503,-89.9721700674265,-111.568322128506,-214.935749133558,-215.133714218074,-165.014992962252,109.196109721615,-71.5068749915992,-37.6892347300153, , , , , , , , , , , , , , , , , , , , , , , , ,6914,6937,5907,6878,6884,6913,6898,6900,6900,8640,6909,6836, , , , , , , , , , , , , , , , , , , , , , , , ,
-119.933730088902,-97.9235629677532,22.010167121149,13.5183940282503,-89.9721700674265,-111.568322128506,-214.935749133558,-215.133714218074,-165.014992962252,108.928646528328,-70.9719486050255,-37.9566979233022, , , , , , , , , , , , , , , , , , , , , , , , ,6998,6973,5926,6901,6965,6974,6946,6944,6928,8675,6978,6874, , , , , , , , , , , , , , , , , , , , , , , , ,
-118.578328352591,-97.9235629677532,20.654765384838,13.5183940282503,-89.9721700674265,-111.568322128506,-214.935749133558,-215.133714218074,-165.014992962252,108.250945660172,-69.6165468687145,-38.6343987914577, , , , , , , , , , , , , , , , , , , , , , , , ,7699,7699,5960,7654,7694,7695,7701,7708,7704,8689,7673,6919, , , , , , , , , , , , , , , , , , , , , , , , ,
-117.127204581424,-97.9235629677532,19.203641613671,13.5183940282503,-89.9721700674265,-111.568322128506,-214.935749133558,-215.133714218074,-165.014992962252,107.525383774589,-68.1654230975475,-39.3599606770412, , , , , , , , , , , , , , , , , , , , , , , , ,7730,7719,5980,7699,7716,7716,7717,7726,7730, ,7735,6954, , , , , , , , , , , , , , , , , , , , , , , , ,
-117.127204581424,-97.9235629677532,19.203641613671,13.5183940282503,-90.7906299697189,-111.568322128506,-214.935749133558,-215.133714218074,-165.014992962252,107.525383774589,-68.1654230975475,-39.3599606770412, , , , , , , , , , , , , , , , , , , , , , , , ,7759,7757,5996,7737,7738,7742,7757,7758,7759, ,7761,7697, , , , , , , , , , , , , , , , , , , , , , , , ,
-117.127204581424,-97.9235629677532,19.203641613671,12.6084014533375,-92.1329486948278,-111.568322128506,-214.935749133558,-215.133714218074,-165.014992962252,107.525383774589,-68.1654230975475,-39.3599606770412, , , , , , , , , , , , , , , , , , , , , , , , ,7796,7799,6018,7759,7764,7776,7779,7782,7799, ,7791,7718, , , , , , , , , , , , , , , , , , , , , , , , ,
-117.127204581424,-97.9235629677532,19.203641613671,12.0003462681443,-93.5169344307042,-111.568322128506,-214.935749133558,-215.133714218074,-165.014992962252,107.525383774589,-68.1654230975475,-39.3599606770412, , , , , , , , , , , , , , , , , , , , , , , , ,7900,7832,6043,7781,7854,7857,7828,7826,7827, ,7878,7755, , , , , , , , , , , , , , , , , , , , , , , , ,
-117.127204581424,-97.9235629677532,19.203641613671,11.2219310132124,-94.9171824159944,-111.568322128506,-214.935749133558,-215.133714218074,-165.014992962252,107.525383774589,-68.1654230975475,-39.3599606770412, , , , , , , , , , , , , , , , , , , , , , , , ,8617,8617,6821,8580,8611,8557,8617,8605,8620, ,8613,7801, , , , , , , , , , , , , , , , , , , , , , , , ,
-117.127204581424,-97.9235629677532,19.203641613671,10.6116276052266,-96.3036307264247,-111.568322128506,-215.877552899023,-215.133714218074,-165.014992962252,107.525383774589,-68.1654230975475,-39.3599606770412, , , , , , , , , , , , , , , , , , , , , , , , ,8646,8636,6835,8653,8632,8579,8633,8623,8647, ,8651,7834, , , , , , , , , , , , , , , , , , , , , , , , ,
-117.127204581424,-97.9235629677532,19.203641613671,10.1097386503382,-97.6441131687589,-111.568322128506,-218.583459515463,-215.133714218074,-165.014992962252,107.525383774589,-68.1654230975475,-39.3599606770412, , , , , , , , , , , , , , , , , , , , , , , , ,8676,8674,6867,8676,8655,8605,8673,8656,8675, ,8678,8614, , , , , , , , , , , , , , , , , , , , , , , , ,
-115.325224159645,-97.9235629677532,17.4016611918922,8.55763702469261,-98.9068224833015,-111.568322128506,-221.185704098415,-215.884912858097,-165.014992962252,106.624393563699,-66.3634426757687,-40.2609508879306, , , , , , , , , , , , , , , , , , , , , , , , ,8714,8718,6889,8695,8679,8639,8696,8679,8717, ,8707,8635, , , , , , , , , , , , , , , , , , , , , , , , ,
-114.109133285504,-97.9235629677532,16.1855703177513,7.83302255179768,-100.062408768425,-113.723444268981,-223.641751760509,-216.919140694716,-165.014992962252,106.016348126629,-65.1473518016278,-40.8689963250011, , , , , , , , , , , , , , , , , , , , , , , , ,8785,8754,6954, ,8775,8722,8748,8726,8746, ,8775,8672, , , , , , , , , , , , , , , , , , , , , , , , ,
-113.512621475184,-97.9235629677532,15.5890585074306,6.98100831205437,-101.085501975965,-115.672100478198,-225.917039452616,-217.789221802029,-166.784280992715,105.718092221469,-64.5508399913071,-41.1672522301614, , , , , , , , , , , , , , , , , , , , , , , , , , ,7696, , , , , , , , ,8720, , , , , , , , , , , , , , , , , , , , , , , , ,
-113.529939394256,-98.5176257733974,15.0123136208589,5.70385220680106,-101.955557681577,-117.373119091594,-227.986267816652,-218.531261348596,-168.358615905131,106.023782583827,-64.2711265075574,-41.7526560762693, , , , , , , , , , , , , , , , , , , , , , , , , , ,7716, , , , , , , , ,8757, , , , , , , , , , , , , , , , , , , , , , , , ,
-114.120630617064,-99.2946625524809,14.8259680645832,5.48884549437497,-102.657053783416,-118.814067308664,-229.833755760169,-219.179885920175,-169.734173705267,106.707646584773,-64.4732993408235,-42.234347243949, , , , , , , , , , , , , , , , , , , , , , , , , , ,7740, , , , , , , , , , , , , , , , , , , , , , , , , , , , , , , , , ,
-115.216320461048,-100.30483993278,14.9114805282685,5.39461178475136,-103.179178948637,-119.969393755012,-231.453006225302,-219.767175756699,-170.916139707767,107.760580196914,-65.0639004946583,-42.6966797022558, , , , , , , , , , , , , , , , , , , , , , , , , , ,7769, , , , , , , , , , , , , , , , , , , , , , , , , , , , , , , , , ,
-116.728686928258,-101.568801907605,15.1598850206525,5.89381652617572,-103.515224832657,-120.848290322549,-232.845698734116,-220.321604212983,-171.917208881127,109.148744417932,-65.9442859744549,-43.2044584434764, , , , , , , , , , , , , , , , , , , , , , , , , , ,7787, , , , , , , , , , , , , , , , , , , , , , , , , , , , , , , , , ,
-117.127204581424,-103.080063253834,14.0471413275903,5.24138446778107,-103.661912309127,-121.459996982664,-234.020343643014,-220.867115164804,-172.755740048022,110.103633917629,-65.5871729545072,-44.5164609631219, , , , , , , , , , , , , , , , , , , , , , , , , , ,7806, , , , , , , , , , , , , , , , , , , , , , , , , , , , , , , , , ,
-117.127204581424,-104.808691506688,12.318513074736,5.91358302254633,-103.618851838057,-121.820133817412,-234.990811083124,-221.42244754086,-173.45378676118,110.967948044056,-64.72285882808,-46.2450892159763, , , , , , , , , , , , , , , , , , , , , , , , , , ,7934, , , , , , , , , , , , , , , , , , , , , , , , , , , , , , , , , ,
-117.127204581424,-106.705978082158,10.421226499266,5.94775262925083,-103.388272695897,-121.948975449471,-235.774897104648,-222.000773621594,-174.03518281799,111.916591331791,-63.774215540345,-48.1423757914462, , , , , , , , , , , , , , , , , , , , , , , , , , ,8613, , , , , , , , , , , , , , , , , , , , , , , , , , , , , , , , , ,
-117.127204581424,-108.709765044563,8.4174395368617,5.77846193236911,-102.975071489976,-121.870030588483,-236.39302694492,-222.609671174307,-174.523807466391,112.918484812994,-62.7723220591428,-50.1461627538505, , , , , , , , , , , , , , , , , , , , , , , , , , ,8633, , , , , , , , , , , , , , , , , , , , , , , , , , , , , , , , , ,
-117.127204581424,-110.909497506751,6.21770707467327,7.11897788052096,-102.387146168329,-121.608982317087,-236.867138210888,-223.251411188652,-174.942110585345,114.018351044088,-61.6724558280486,-52.3458952160389, , , , , , , , , , , , , , , , , , , , , , , , , , ,8656, , , , , , , , , , , , , , , , , , , , , , , , , , , , , , , , , ,
-117.127204581424,-112.91412999528,4.21307458614398,8.60833060955241,-101.635916029146,-121.192970145113,-237.652700493025,-223.923518184187,-175.309949311644,115.020667288352,-60.670139583784,-54.3505277045682, , , , , , , , , , , , , , , , , , , , , , , , , , ,8685, , , , , , , , , , , , , , , , , , , , , , , , , , , , , , , , , ,
-117.127204581424,-114.813856737238,2.31334784418583,10.2015797729734,-100.736891948991,-120.650142606373,-237.906129724147,-224.619544663985,-175.643768492205,115.970530659332,-59.7202762128049,-56.2502544465264, , , , , , , , , , , , , , , , , , , , , , , , , , ,8703, , , , , , , , , , , , , , , , , , , , , , , , , , , , , , , , , ,
-117.127204581424,-116.879173692583,0.248030888841516,11.214454564885,-99.7101535346346,-120.009380076999,-238.802453684253,-225.329988053079,-175.9561360372,117.003189137004,-58.6876177351327,-58.3155714018707, , , , , , , , , , , , , , , , , , , , , , , , , , ,8725, , , , , , , , , , , , , , , , , , , , , , , , , , , , , , , , , ,
-117.127204581424,-118.395069920765,-1.26786533934058,12.8561938473475,-98.5806027153625,-119.300078847072,-238.920634874747,-226.043267828087,-176.255616883398,117.761137251095,-57.9296696210417,-59.8314676300528, , , , , , , , , , , , , , , , , , , , , , , , , , ,8853, , , , , , , , , , , , , , , , , , , , , , , , , , , , , , , , , ,
-118.226192043598,-119.656811910627,-1.43061986702913,13.5183940282503,-97.3778876585808,-118.551898136604,-238.999548366756,-227.230479298247,-176.54694244983,118.941501977112,-58.3977860882842,-60.5437158888281, , , , , , , , , , , , , , , , , , , , , , , , , , , , , , , , , , , , , , , , , , , , , , , , , , , , , , , , , , , , ,
-119.07828600203,-121.141670817033,-2.06338481500223,13.5183940282503,-96.1359213422008,-117.79439887598,-239.055255140002,-227.911068395124,-176.831414072056,120.109978409532,-58.507450593514,-61.6025278160176, , , , , , , , , , , , , , , , , , , , , , , , , , , , , , , , , , , , , , , , , , , , , , , , , , , , , , , , , , , , ,
-119.780020075004,-121.942533394836,-2.16251331983211,13.5183940282503,-94.8919528950387,-117.056536157513,-239.101241824454,-229.176260572682,-177.107470265856,120.86127673492,-58.8087533775858,-62.0525233573342, , , , , , , , , , , , , , , , , , , , , , , , , , , , , , , , , , , , , , , , , , , , , , , , , , , , , , , , , , , , ,
-120.176661750974,-122.915225063441,-2.73856331246692,14.6741647745984,-93.6851853738455,-116.365992134133,-239.148140843461,-229.774857544429,-177.371344337017,121.545943407207,-58.7190492192533,-62.8268941879539, , , , , , , , , , , , , , , , , , , , , , , , , , , , , , , , , , , , , , , , , , , , , , , , , , , , , , , , , , , , ,
-120.376644660765,-123.086899694142,-2.71025503337695,16.2838080519146,-92.5549694049265,-115.748347279182,-239.203506245322,-230.316847877917,-177.617737444672,121.731772177454,-58.833194813694,-62.8985773637596, , , , , , , , , , , , , , , , , , , , , , , , , , , , , , , , , , , , , , , , , , , , , , , , , , , , , , , , , , , , ,
-120.405397434983,-123.0326219184,-2.62722448341755,19.0022393430169,-91.5386370571296,-115.226092953497,-239.271630140702,-230.794032810577,-177.840435237391,121.719009676692,-58.8890864757825,-62.829923200909, , , , , , , , , , , , , , , , , , , , , , , , , , , , , , , , , , , , , , , , , , , , , , , , , , , , , , , , , , , , ,
-120.289845025165,-122.788763338873,-2.49891831370804,20.1819169239643,-90.6690749535774,-114.817498070767,-239.353381739573,-231.199938915935,-178.03280910961,121.539304182019,-58.8954633557282,-62.6438408262905, , , , , , , , , , , , , , , , , , , , , , , , , , , , , , , , , , , , , , , , , , , , , , , , , , , , , , , , , , , , ,
-120.057200625478,-122.39506727093,-2.33786664545131,21.5248501416627,-89.9721700674265,-114.53536155461,-239.446057627295,-231.529625209817,-178.571459846756,121.226133948204,-58.8596669900134,-62.3664669581906, , , , , , , , , , , , , , , , , , , , , , , , , , , , , , , , , , , , , , , , , , , , , , , , , , , , , , , , , , , , ,
-119.73415639452,-121.891303749025,-2.15714735450491,22.8128590172967,-89.9721700674265,-114.385709406793,-239.543247659528,-231.779322465061,-178.683257191019,120.812730071772,-58.7885045200073,-62.0242255517649, , , , , , , , , , , , , , , , , , , , , , , , , , , , , , , , , , , , , , , , , , , , , , , , , , , , , , , , , , , , ,
-119.346454861265,-121.314174396503,-1.9677195352382,23.7096589656362,-89.9721700674265,-114.366528847774,-239.634742226272,-231.945978687047,-179.421597649109,120.330314628884,-58.6893676630131,-61.6409469658707, , , , , , , , , , , , , , , , , , , , , , , , , , , , , , , , , , , , , , , , , , , , , , , , , , , , , , , , , , , , ,
-118.91877737689,-120.694693796733,-1.77591641984317,25.0362982234606,-89.9721700674265,-114.46666684893,-239.706527112578,-232.02680448891,-179.427630893515,119.806735586811,-58.5714304785231,-61.235305108288, , , , , , , , , , , , , , , , , , , , , , , , , , , , , , , , , , , , , , , , , , , , , , , , , , , , , , , , , , , , ,
-118.474848642935,-120.056233025057,-1.58138438212144,25.2531936620365,-89.9721700674265,-114.665044862253,-239.740925095335,-232.018909931826,-179.372120755121,119.265540833996,-58.4467321304068,-60.8188087035892, , , , , , , , , , , , , , , , , , , , , , , , , , , , , , , , , , , , , , , , , , , , , , , , , , , , , , , , , , , , ,
-118.037633651068,-119.413348872409,-1.37571522134034,25.3563647553758,-89.9721700674265,-114.930342961753,-239.71694524688,-231.919107092684,-179.249961922026,118.725491261739,-58.3309592148639,-60.3945320468746, , , , , , , , , , , , , , , , , , , , , , , , , , , , , , , , , , , , , , , , , , , , , , , , , , , , , , , , , , , , ,
-117.629498022202,-118.771445445757,-1.14194742355506,25.3817526147143,-89.9721700674265,-115.221279875714,-239.610890785956,-231.723928438921,-179.056901761735,118.20047173398,-58.2437752993234,-59.9566964346563, , , , , , , , , , , , , , , , , , , , , , , , , , , , , , , , , , , , , , , , , , , , , , , , , , , , , , , , , , , , ,
-117.272214828203,-118.127236353369,-0.855021525166318,25.3712023419625,-89.9721700674265,-115.487566410202,-239.397253314321,-231.429880351718,-178.789975558387,117.699725590786,-58.208596651518,-59.4911289392677, , , , , , , , , , , , , , , , , , , , , , , , , , , , , , , , , , , , , , , , , , , , , , , , , , , , , , , , , , , , ,
-117.127204581424,-117.469907252953,-0.342702671528638,25.3701922224295,-89.9721700674265,-115.671550634335,-239.049884715214,-231.033909742344,-178.448020386818,117.298555917189,-58.3922509549477,-58.9063049622409, , , , , , , , , , , , , , , , , , , , , , , , , , , , , , , , , , , , , , , , , , , , , , , , , , , , , , , , , , , , ,
-117.127204581424,-116.782826670736,0.344377910688184,25.425169042624,-89.9721700674265,-115.710516070344,-238.543392772701,-230.534012284642,-178.032174443827,116.95501562608,-58.7357912460561,-58.219224380024, , , , , , , , , , , , , , , , , , , , , , , , , , , , , , , , , , , , , , , , , , , , , , , , , , , , , , , , , , , , ,
-117.127204581424,-116.045621705239,1.08158287618504,25.5806773051037,-89.9721700674265,-115.539549558979,-237.854667258495,-229.929869258403,-177.546243169454,116.586413143332,-59.1043937288045,-57.4820194145272, , , , , , , , , , , , , , , , , , , , , , , , , , , , , , , , , , , , , , , , , , , , , , , , , , , , , , , , , , , , ,
-117.127204581424,-115.236427070981,1.89077751044339,25.8764688148821,-89.9721700674265,-115.094870921985,-236.964426994825,-229.223387263587,-176.996819674533,116.181815826203,-59.5089910459337,-56.6728247802688, , , , , , , , , , , , , , , , , , , , , , , , , , , , , , , , , , , , , , , , , , , , , , , , , , , , , , , , , , , , ,
-117.127204581424,-114.334129345491,2.79307523593285,26.344748217635,-89.9721700674265,-114.317511065316,-235.858690429892,-228.419039026298,-176.393085015972,115.730666963458,-59.9601399086784,-55.7705270547794, , , , , , , , , , , , , , , , , , , , , , , , , , , , , , , , , , , , , , , , , , , , , , , , , , , , , , , , , , , , ,
-117.37238274119,-113.320458363955,4.05192437723518,27.0076628872031,-89.9721700674265,-113.157227384411,-234.53010069512,-227.523951342219,-175.746269538477,115.346420552573,-60.7121535592125,-54.6342669933599, , , , , , , , , , , , , , , , , , , , , , , , , , , , , , , , , , , , , , , , , , , , , , , , , , , , , , , , , , , , ,
-117.825500586725,-112.181819932539,5.64368065418613,27.8751020345058,-88.6729740055397,-111.576541261719,-232.979062961369,-226.547735910106,-175.068812527717,115.003660259632,-61.7345906204555,-53.2690696391765, , , , , , , , , , , , , , , , , , , , , , , , , , , , , , , , , , , , , , , , , , , , , , , , , , , , , , , , , , , , ,
-118.480068389941,-110.910812776601,7.56925561334025,28.9428459346516,-85.7160729718991,-111.568322128506,-231.214666616895,-225.502095643734,-174.373302937681,114.695440583272,-63.0246620016407,-51.6707785816306, , , , , , , , , , , , , , , , , , , , , , , , , , , , , , , , , , , , , , , , , , , , , , , , , , , , , , , , , , , , ,
-119.186961347859,-109.507417338426,9.67954400943346,30.1911054665957,-82.3511305809157,-111.568322128506,-229.255367579508,-224.400260186997,-173.671314644519,114.347189343143,-64.4332526786463,-49.9139366644963, , , , , , , , , , , , , , , , , , , , , , , , , , , , , , , , , , , , , , , , , , , , , , , , , , , , , , , , , , , , ,
-120.119314501323,-107.979872777224,12.1394417240991,31.5835083911184,-78.1693656862928,-111.568322128506,-227.129402578136,-223.2563137258,-172.97226468027,114.049593639273,-66.1293781127108,-47.9202155265623, , , , , , , , , , , , , , , , , , , , , , , , , , , , , , , , , , , , , , , , , , , , , , , , , , , , , , , , , , , , ,
-120.996531263539,-106.345267178713,14.6512640848263,33.0666140583431,-74.2696476192684,-111.568322128506,-224.874902213942,-222.084481257149,-172.28242291433,113.670899221126,-67.8238976741827,-45.8470015469435, , , , , , , , , , , , , , , , , , , , , , , , , , , , , , , , , , , , , , , , , , , , , , , , , , , , , , , , , , , , ,
-121.957108209824,-104.629860781586,17.3272474282384,34.5700686216745,-69.6950839565729,-111.568322128506,-222.539663767911,-220.898439898608,-171.604187189281,113.293484495705,-69.642177819031,-43.6513066766737, , , , , , , , , , , , , , , , , , , , , , , , , , , , , , , , , , , , , , , , , , , , , , , , , , , , , , , , , , , , ,
-122.86873066071,-102.869151328974,19.9995793317358,36.0075469127573,-65.7046594868474,-105.87894787587,-220.180535493022,-219.710719286882,-170.935710031639,112.868940994842,-71.4341549962227,-41.4347859986192, , , , , , , , , , , , , , , , , , , , , , , , , , , , , , , , , , , , , , , , , , , , , , , , , , , , , , , , , , , , ,
-123.774341231885,-101.107677408916,22.6666638229689,37.2786598685501,-61.8174494117505,-100.584577816661,-217.862349968792,-218.53224766,-170.27092732761,112.441009320401,-73.220502527427,-39.2205067929739, , , , , , , , , , , , , , , , , , , , , , , , , , , , , , , , , , , , , , , , , , , , , , , , , , , , , , , , , , , , ,
-124.554538486055,-99.3985399289913,25.1559985570637,37.3043231096236,-58.1813053205725,-96.1236646819451,-215.656330353669,-217.372089482773,-169.600007235099,111.976539207523,-74.8552685215593,-37.1212706859639, , , , , , , , , , , , , , , , , , , , , , , , , , , , , , , , , , , , , , , , , , , , , , , , , , , , , , , , , , , , ,
-126.050168401829,-97.9235629677532,28.1266054340759,37.9019813816003,-55.1438230030395,-91.1908782648378,-214.935749133558,-216.23741190348,-168.910220971906,111.986865684791,-77.0883869179524,-34.8984787668387, , , , , , , , , , , , , , , , , , , , , , , , , , , , , , , , , , , , , , , , , , , , , , , , , , , , , , , , , , , , ,
-126.545284068074,-97.9235629677532,28.6217211003208,37.9852884235601,-52.7385736582745,-87.6423739194078,-214.935749133558,-215.133714218074,-168.187239190059,112.234423517914,-77.5835025841972,-34.6509209337163, , , , , , , , , , , , , , , , , , , , , , , , , , , , , , , , , , , , , , , , , , , , , , , , , , , , , , , , , , , , ,
-126.859289754601,-97.9235629677532,28.9357267868478,37.0661110554149,-51.5967295149706,-85.5078674051365,-214.935749133558,-215.133714218074,-167.416867712864,112.391426361177,-77.8975082707243,-34.4939180904528, , , , , , , , , , , , , , , , , , , , , , , , , , , , , , , , , , , , , , , , , , , , , , , , , , , , , , , , , , , , ,
-126.983943588394,-97.7230413111869,29.2609022772066,35.8003751553983,-51.9425174082272,-81.8816904190381,-214.0036820548,-215.133714218074,-166.587234382798,112.35349244979,-78.1224229327999,-34.2310695169903, , , , , , , , , , , , , , , , , , , , , , , , , , , , , , , , , , , , , , , , , , , , , , , , , , , , , , , , , , , , ,
-126.927899351078,-96.659652755537,30.2682465955412,33.7408413453931,-53.5208831203733,-81.5556160294412,-213.385068613692,-215.133714218074,-165.691407727106,111.793776053308,-78.5980729733096,-33.195703079998, , , , , , , , , , , , , , , , , , , , , , , , , , , , , , , , , , , , , , , , , , , , , , , , , , , , , , , , , , , , ,
-126.718567782118,-96.3762926646581,30.3422751174602,30.2573934546998,-56.6829784486907,-80.6390065804672,-212.314117990074,-214.200613244419,-165.014992962252,111.547430223388,-78.5304214497891,-33.0170087735991, , , , , , , , , , , , , , , , , , , , , , , , , , , , , , , , , , , , , , , , , , , , , , , , , , , , , , , , , , , , ,
-126.402662578696,-96.7471804198298,29.6554821588658,26.5524776222027,-61.5343898981736,-83.2044563116672,-212.426962688665,-212.844959742216,-165.014992962252,111.574921499263,-78.0290723687805,-33.5458491304821, , , , , , , , , , , , , , , , , , , , , , , , , , , , , , , , , , , , , , , , , , , , , , , , , , , , , , , , , , , , ,
-126.045316127571,-97.3045002942662,28.740815833305,22.1006927784048,-67.9192352361952,-87.6028937986694,-213.426306790013,-211.55420118079,-164.742387549102,111.674908210919,-77.393065980438,-34.2818422304807, , , , , , , , , , , , , , , , , , , , , , , , , , , , , , , , , , , , , , , , , , , , , , , , , , , , , , , , , , , , ,
-125.727803732426,-97.9235629677532,27.8042407646732,16.5629131456113,-75.7239860375475,-94.4759782462969,-213.200199183426,-209.836385094274,-162.948610832454,111.82568335009,-76.7660222485496,-35.0596611015401, , , , , , , , , , , , , , , , , , , , , , , , , , , , , , , , , , , , , , , , , , , , , , , , , , , , , , , , , , , , ,
-125.544043282188,-100.123001414704,25.4210418674833,11.1032288906446,-84.743067851353,-100.791155189127,-215.133837479197,-209.280899230166,-161.593229625428,112.833522348446,-75.4825425748354,-37.3509797736107, , , , , , , , , , , , , , , , , , , , , , , , , , , , , , , , , , , , , , , , , , , , , , , , , , , , , , , , , , , , ,
-125.596143295064,-103.399626652538,22.1965166425258,5.53735085564557,-94.3246899721427,-107.921003582132,-219.122689825249,-208.897507185658,-160.198987511387,114.497884973801,-73.8963299687948,-40.6015550050063, , , , , , , , , , , , , , , , , , , , , , , , , , , , , , , , , , , , , , , , , , , , , , , , , , , , , , , , , , , , ,
-125.989358832423,-106.991910947421,18.9974478850021,0.0934450044747432,-103.956051227411,-115.747725396903,-221.551699785693,-208.732080588666,-160.276661130169,116.490634889922,-72.4934033587126,-43.9972315312097, , , , , , , , , , , , , , , , , , , , , , , , , , , , , , , , , , , , , , , , , , , , , , , , , , , , , , , , , , , , ,
-126.826859114847,-111.62191164361,15.2049474712368,-4.48635833300983,-112.899248696641,-123.111673020078,-223.990663888884,-209.864933830795,-160.124652045338,119.224385379229,-71.0159032930416,-48.2084820861867, , , , , , , , , , , , , , , , , , , , , , , , , , , , , , , , , , , , , , , , , , , , , , , , , , , , , , , , , , , , ,
-128.204673525852,-116.544876861377,11.6597966644743,-7.82409930924729,-120.174715368946,-132.131993253969,-226.178555956917,-210.292227453069,-160.886338193889,122.374775193615,-69.9322350951629,-52.4425400984516, , , , , , , , , , , , , , , , , , , , , , , , , , , , , , , , , , , , , , , , , , , , , , , , , , , , , , , , , , , , ,
-130.207050164143,-120.972341194699,9.23470896944433,-10.8676212908601,-124.765186454533,-137.0130843648,-227.87292423161,-211.095938917836,-161.880816633089,125.589695679421,-69.7208795667936,-55.8688161126273, , , , , , , , , , , , , , , , , , , , , , , , , , , , , , , , , , , , , , , , , , , , , , , , , , , , , , , , , , , , ,
-132.902270190328,-125.243541679878,7.6587285104507,-9.93753467510732,-125.549671860856,-139.428668079379,-229.160406206738,-212.82266536775,-163.649388680894,129.072905935103,-70.2804993503893,-58.7924065847135, , , , , , , , , , , , , , , , , , , , , , , , , , , , , , , , , , , , , , , , , , , , , , , , , , , , , , , , , , , , ,
-136.338778532449,-129.680341880491,6.6584366519579,-5.925450807902,-121.254582087887,-138.242042756625,-228.962130782822,-214.509181315689,-167.082444243143,133.00956020647,-71.4986075922033,-61.5109526142667, , , , , , , , , , , , , , , , , , , , , , , , , , , , , , , , , , , , , , , , , , , , , , , , , , , , , , , , , , , , ,
-140.541377760948,-132.707059238271,7.83431852267733,1.51012460879048,-110.679009981196,-132.512382712978,-228.358064421555,-217.158235268193,-170.742565480226,136.624218499609,-74.1878481418125,-62.4363703577967, , , , , , , , , , , , , , , , , , , , , , , , , , , , , , , , , , , , , , , , , , , , , , , , , , , , , , , , , , , , ,
-145.507224233746,-134.788811201688,10.718413032058,13.5183940282503,-93.3275654828426,-121.986931186136,-224.937564158677,-219.793604155819,-175.737740074758,140.148017717717,-78.1128186329017,-62.0351990848149, , , , , , , , , , , , , , , , , , , , , , , , , , , , , , , , , , , , , , , , , , , , , , , , , , , , , , , , , , , , ,
-151.201465678102,-135.110892386127,16.0905732919747,29.2313686213201,-66.7212451830917,-104.157934780603,-219.402845053801,-222.864283175323,-181.870001056868,143.156179032115,-83.6460194850383,-59.5101595470765, , , , , , , , , , , , , , , , , , , , , , , , , , , , , , , , , , , , , , , , , , , , , , , , , , , , , , , , , , , , ,
-157.552528575552,-133.827899124206,23.7246294513462,51.1402552761693,-30.8880994605893,-80.5511815466137,-211.51762676347,-226.436855697236,-189.066130035537,145.690213849879,-90.638579013449,-55.0516348364299, , , , , , , , , , , , , , , , , , , , , , , , , , , , , , , , , , , , , , , , , , , , , , , , , , , , , , , , , , , , ,
-164.447246002204,-129.90861922307,34.5386267791342,77.2111549928687,15.3721198756315,-47.1755088115815,-200.852421408091,-230.911058623676,-197.026152054049,147.177932612637,-99.492936390669,-47.6849962219679, , , , , , , , , , , , , , , , , , , , , , , , , , , , , , , , , , , , , , , , , , , , , , , , , , , , , , , , , , , , ,
-172.522082193799,-123.341247329026,49.1808348647731,108.896270836764,72.2028978522244,-5.98530545279201,-188.182775166729,-235.307487700474,-205.869157640085,147.931664761413,-110.851458529286,-37.0802062321265, , , , , , , , , , , , , , , , , , , , , , , , , , , , , , , , , , , , , , , , , , , , , , , , , , , , , , , , , , , , ,
-180.463306917587,-114.468901662195,65.9944052553925,146.068236538621,138.767939799221,44.9885137402742,-171.552588751804,-239.1750144027,-215.983928436167,147.466104289891,-123.22885608649,-24.2372482034012, , , , , , , , , , , , , , , , , , , , , , , , , , , , , , , , , , , , , , , , , , , , , , , , , , , , , , , , , , , , ,
-187.936805985764,-101.800648675779,86.1361573099856,188.370135048965,216.510896506906,104.897127114468,-152.060512688185,-242.41399220026,-225.501501003261,144.868727330772,-137.036481647875,-7.83224568289657, , , , , , , , , , , , , , , , , , , , , , , , , , , , , , , , , , , , , , , , , , , , , , , , , , , , , , , , , , , , ,
-195.086854862382,-86.0231871535097,109.063667708873,235.320341473162,303.284053354664,171.879177325791,-128.853179828406,-245.640850580188,-235.390307453054,140.555021007946,-152.075261285627,11.5202402776814, , , , , , , , , , , , , , , , , , , , , , , , , , , , , , , , , , , , , , , , , , , , , , , , , , , , , , , , , , , , ,
-201.365489995748,-67.0563562877964,134.309133707952,286.244965148214,398.918659754361,248.403022952985,-102.404775598242,-247.376154859061,-244.076241927058,134.210923141772,-167.83731185185,33.6263887100775, , , , , , , , , , , , , , , , , , , , , , , , , , , , , , , , , , , , , , , , , , , , , , , , , , , , , , , , , , , , ,
-208.029785163261,-44.3954610673217,163.634324095939,339.209862277848,501.297845634468,329.988044113835,-74.3847163897753,-247.194938557586,-251.587021206337,126.212623115292,-185.8320546296,59.6194315143086, , , , , , , , , , , , , , , , , , , , , , , , , , , , , , , , , , , , , , , , , , , , , , , , , , , , , , , , , , , , ,
-212.200256787322,-18.9134931002658,193.286763687056,393.494375681799,607.822817135185,419.349813766659,-42.1391438410159,-244.835157974735,-257.202172287957,115.556874943794,-202.743510237189,87.1866352933949, , , , , , , , , , , , , , , , , , , , , , , , , , , , , , , , , , , , , , , , , , , , , , , , , , , , , , , , , , , , ,
-214.196877344417,7.53686284113661,221.733740185554,447.602587948932,717.2638073894,512.7257343078,-8.35916903222102,-239.325133546877,-260.121061695694,103.33000725164,-217.965308764985,114.635301513345, , , , , , , , , , , , , , , , , , , , , , , , , , , , , , , , , , , , , , , , , , , , , , , , , , , , , , , , , , , , ,
-212.597133010474,39.2749013638373,251.872034374311,499.870884365687,825.276854248629,608.068425012519,28.8098491402903,-229.769428603821,-260.107924516373,86.6611158233185,-232.234583692392,145.573467869074, , , , , , , , , , , , , , , , , , , , , , , , , , , , , , , , , , , , , , , , , , , , , , , , , , , , , , , , , , , , ,
-208.72286633562,70.1454450712202,278.868311406841,548.518381491913,930.754208426853,704.64603689177,70.3307822628133,-215.456821866124,-256.070535863784,69.2887106322003,-243.79558887123,174.50687823903, , , , , , , , , , , , , , , , , , , , , , , , , , , , , , , , , , , , , , , , , , , , , , , , , , , , , , , , , , , , ,
-200.187526677908,105.514173925606,305.701700603514,591.634032706223,1029.29097836296,799.269407398622,115.969150735022,-195.349242001639,-247.923989761845,47.3366763761511,-252.944613640711,205.60793726456, , , , , , , , , , , , , , , , , , , , , , , , , , , , , , , , , , , , , , , , , , , , , , , , , , , , , , , , , , , , ,
-186.456719332963,143.311923355253,329.768642688216,627.330475109134,1118.70474177869,890.121625746359,164.348510020949,-167.781170397635,-233.292151071043,21.5723979888555,-258.112681010589,236.540283021734, , , , , , , , , , , , , , , , , , , , , , , , , , , , , , , , , , , , , , , , , , , , , , , , , , , , , , , , , , , , ,
-168.799636535416,185.006951878207,353.806588413623,653.739878967135,1195.12014898932,976.67699723725,218.714146597121,-131.564335272568,-210.976833815422,-8.10365767139538,-261.303112474519,269.406770145915, , , , , , , , , , , , , , , , , , , , , , , , , , , , , , , , , , , , , , , , , , , , , , , , , , , , , , , , , , , , ,
-144.006100522859,224.126028143433,368.132128666292,669.012764198107,1254.62603607714,1055.03033279669,277.711116474092,-87.2957250376952,-179.728503370209,-40.059963810287,-256.069114594575,296.129078404862, , , , , , , , , , , , , , , , , , , , , , , , , , , , , , , , , , , , , , , , , , , , , , , , , , , , , , , , , , , , ,
-112.587348893265,270.434159168292,383.021508061557,671.480895938672,1295.54080415147,1124.92572594074,342.350175992959,-31.8992056693743,-138.273680656319,-78.9234051375132,-247.804428477411,326.727833614924, , , , , , , , , , , , , , , , , , , , , , , , , , , , , , , , , , , , , , , , , , , , , , , , , , , , , , , , , , , , ,
-74.3512618503929,317.330662356102,391.681924206495,659.659865566152,1314.55181905442,1185.77355433415,414.323000203644,36.7874323981274,-85.3529598953043,-121.489700252854,-233.016593028444,354.506293281298, , , , , , , , , , , , , , , , , , , , , , , , , , , , , , , , , , , , , , , , , , , , , , , , , , , , , , , , , , , , ,
-27.6888556456354,369.021613128968,396.710468774604,632.321693466614,1308.96985436791,1235.73879890869,494.765267152632,123.369561799751,-19.7708662649795,-170.666378741666,-212.199662210119,382.866040951786, , , , , , , , , , , , , , , , , , , , , , , , , , , , , , , , , , , , , , , , , , , , , , , , , , , , , , , , , , , , ,
27.5384620552601,426.702857993948,399.164395938688,588.555248407767,1278.03710840353,1272.84714649975,584.848289633755,225.200258314793,60.1474598771497,-227.120660024604,-185.812966941714,412.933626966318, , , , , , , , , , , , , , , , , , , , , , , , , , , , , , , , , , , , , , , , , , , , , , , , , , , , , , , , , , , , ,
90.84353750091,492.512082710688,401.668545209778,528.275446922081,1220.40010875099,1297.10747959245,685.692891919415,344.063538428959,155.244489663531,-291.677810105799,-155.412503854434,447.090313960233, , , , , , , , , , , , , , , , , , , , , , , , , , , , , , , , , , , , , , , , , , , , , , , , , , , , , , , , , , , , ,
163.326034075472,566.248081983812,402.92204790834,451.267744055482,1134.6247712258,1308.48147634092,800.566176009841,484.50095382651,264.389749875538,-364.787058029642,-119.798006916434,484.585064946075, , , , , , , , , , , , , , , , , , , , , , , , , , , , , , , , , , , , , , , , , , , , , , , , , , , , , , , , , , , , ,
244.780563757741,644.276577986185,399.496014228444,356.896695058424,1021.96477281091,1307.35739522929,927.10189687979,645.185092356253,389.038793394493,-444.528570871963,-77.357725235351,521.886296107314, , , , , , , , , , , , , , , , , , , , , , , , , , , , , , , , , , , , , , , , , , , , , , , , , , , , , , , , , , , , ,
334.043139234387,730.971096500293,396.927957265906,246.629057427081,882.156025049376,1293.4846314952,1069.00984409396,823.502874268816,528.984147763587,-532.50711786734,-31.4424090157596,563.9495268831, , , , , , , , , , , , , , , , , , , , , , , , , , , , , , , , , , , , , , , , , , , , , , , , , , , , , , , , , , , , ,
431.205877675365,823.892157707899,392.686280032534,122.706842266892,717.342257062389,1266.63844353869,1220.94343259111,1021.21654206903,683.490622066487,-627.549017691631,19.2597988214153,608.289218870216, , , , , , , , , , , , , , , , , , , , , , , , , , , , , , , , , , , , , , , , , , , , , , , , , , , , , , , , , , , , ,
536.107973385951,922.888617625199,386.780644239248,-14.0843308088114,530.144631955853,1228.10391859765,1384.2517128385,1239.51079278916,851.233531638142,-729.498295505574,74.6636645733515,654.834630932223, , , , , , , , , , , , , , , , , , , , , , , , , , , , , , , , , , , , , , , , , , , , , , , , , , , , , , , , , , , , ,
647.676432245546,1030.05114918577,382.374716940221,-161.425593388431,321.684332975547,1176.92500068723,1557.56331119992,1473.76221330905,1030.25818271612,-838.863790715656,132.650857652663,706.212933062994, , , , , , , , , , , , , , , , , , , , , , , , , , , , , , , , , , , , , , , , , , , , , , , , , , , , , , , , , , , , ,
764.016068612885,1139.43289352912,375.416824916232,-315.599789122036,98.0010688905312,1114.86340484281,1743.68674552207,1717.62665328611,1219.88522775148,-951.724481071001,194.299621848327,757.424859222675, , , , , , , , , , , , , , , , , , , , , , , , , , , , , , , , , , , , , , , , , , , , , , , , , , , , , , , , , , , , ,
883.384565562246,1253.06435728572,369.679791723475,-473.935261883998,-138.503115978108,1041.75095002652,1935.12759361334,1970.61174020686,1415.16027341383,-1068.22446142398,256.852386919386,811.372074504598, , , , , , , , , , , , , , , , , , , , , , , , , , , , , , , , , , , , , , , , , , , , , , , , , , , , , , , , , , , , ,
1003.72536164813,1366.07170561372,362.346343965582,-633.545329018401,-383.078918137289,955.869165369931,2123.71583656961,2230.00903426701,1610.67160790976,-1184.89853363092,320.689508841276,864.209024789649, , , , , , , , , , , , , , , , , , , , , , , , , , , , , , , , , , , , , , , , , , , , , , , , , , , , , , , , , , , , ,
1122.69988064613,1473.15092105774,350.451040411613,-791.058587730082,-632.153322617172,859.393715170767,2310.49877721628,2483.07689196162,1807.80594212128,-1297.92540085193,386.124420117257,911.800980734676, , , , , , , , , , , , , , , , , , , , , , , , , , , , , , , , , , , , , , , , , , , , , , , , , , , , , , , , , , , , ,
1237.73883167135,1575.65751224779,337.918680576439,-942.445553676661,-878.759290062657,751.27565480179,2481.38156089913,2730.23983737272,1994.74116494999,-1406.69817195957,449.910075547454,956.788096412112, , , , , , , , , , , , , , , , , , , , , , , , , , , , , , , , , , , , , , , , , , , , , , , , , , , , , , , , , , , , ,
1346.11246636722,1663.8342854586,317.721819091375,-1082.81461109238,-1119.74685956099,629.895010621956,2635.02526169018,2960.88168407307,2172.2280796092,-1504.97337591291,514.195323637923,990.778052274985, , , , , , , , , , , , , , , , , , , , , , , , , , , , , , , , , , , , , , , , , , , , , , , , , , , , , , , , , , , , ,
1445.01824302612,1736.20869702408,291.190453997952,-1210.52319696505,-1350.99514265481,497.40482840914,2773.07456319007,3167.32492297803,2332.68444779579,-1590.6134700251,576.913894514086,1013.69957551101, , , , , , , , , , , , , , , , , , , , , , , , , , , , , , , , , , , , , , , , , , , , , , , , , , , , , , , , , , , , ,
1531.2844008118,1793.75259167012,262.46819085832,-1320.65947063294,-1567.48578675795,350.898238716201,2879.95099919812,3341.64190203351,2474.91159054296,-1662.51849624096,634.408104976739,1028.11039126422, , , , , , , , , , , , , , , , , , , , , , , , , , , , , , , , , , , , , , , , , , , , , , , , , , , , , , , , , , , , ,
1602.13455867151,1828.90708646208,226.772527790571,-1411.64076945045,-1765.74917825972,192.263827246732,2946.2905249762,3480.8281103709,2585.65692721757,-1715.52082256679,687.681015440468,1027.83980712632, , , , , , , , , , , , , , , , , , , , , , , , , , , , , , , , , , , , , , , , , , , , , , , , , , , , , , , , , , , , ,
1656.68090504762,1841.79684096564,185.115935918019,-1480.56844190342,-1943.91942263802,19.7992066121611,2975.77588466583,3577.01088160326,2671.7560902439,-1749.23887300663,735.782484564802,1013.45638844183, , , , , , , , , , , , , , , , , , , , , , , , , , , , , , , , , , , , , , , , , , , , , , , , , , , , , , , , , , , , ,
1691.90426492337,1829.26443252921,137.360167605841,-1543.91517768119,-2102.17885724243,-169.435619372206,2954.02716682105,3625.52391304302,2721.4767457033,-1760.58434872629,777.272048658763,983.312300067524, , , , , , , , , , , , , , , , , , , , , , , , , , , , , , , , , , , , , , , , , , , , , , , , , , , , , , , , , , , , ,
1706.06778720189,1787.95814396583,81.8903567639423,-1570.37105265867,-2235.2330856427,-368.387116474437,2888.55933338787,3623.03293317304,2738.53738392493,-1747.01296558386,812.088715218972,934.924250364886, , , , , , , , , , , , , , , , , , , , , , , , , , , , , , , , , , , , , , , , , , , , , , , , , , , , , , , , , , , , ,
1698.81080177058,1720.39950830712,21.5887065365404,-1590.55690682611,-2343.45740938247,-581.134440660392,2767.57298452212,3567.28677821342,2719.20459783302,-1709.60515503885,838.611047617018,870.994107421829, , , , , , , , , , , , , , , , , , , , , , , , , , , , , , , , , , , , , , , , , , , , , , , , , , , , , , , , , , , , ,
1654.9097563132,1630.54038470323,-24.3693716099768,-1569.07281773314,-2428.45233587748,-806.16272561293,2600.15943684362,3459.07192093816,2667.91948479357,-1642.72507050822,839.639563961591,803.085506546625, , , , , , , , , , , , , , , , , , , , , , , , , , , , , , , , , , , , , , , , , , , , , , , , , , , , , , , , , , , , ,
1603.81901249861,1517.90613307342,-85.9128794251859,-1537.40368157866,-2492.38937245822,-1033.42128128602,2382.59675552593,3299.48353413336,2582.22474031679,-1560.86257278601,844.865945961896,715.996626824117, , , , , , , , , , , , , , , , , , , , , , , , , , , , , , , , , , , , , , , , , , , , , , , , , , , , , , , , , , , , ,
1524.5161235699,1381.89161339154,-142.624510178358,-1470.97468383372,-2535.99955065877,-1273.48300080507,2118.21353366503,3091.02700503037,2461.34200719345,-1453.20386848072,833.570316874131,619.633551606593, , , , , , , , , , , , , , , , , , , , , , , , , , , , , , , , , , , , , , , , , , , , , , , , , , , , , , , , , , , , ,
1425.37973195817,1230.2452916447,-195.13444031347,-1388.12864010174,-2561.48707149465,-1509.18732126788,1812.07687307975,2838.52171842859,2309.15509708231,-1327.81251180143,810.257086135819,517.555425665613, , , , , , , , , , , , , , , , , , , , , , , , , , , , , , , , , , , , , , , , , , , , , , , , , , , , , , , , , , , , ,
1315.13571090626,1065.82426644423,-249.311444462033,-1292.36141159889,-2570.56480544404,-1751.86876562266,1468.21985908905,2551.3445753935,2136.44241422231,-1190.47998867525,782.223577684149,408.256410991099, , , , , , , , , , , , , , , , , , , , , , , , , , , , , , , , , , , , , , , , , , , , , , , , , , , , , , , , , , , , ,
1188.70808853622,897.036637950893,-291.671450585324,-1187.08884044414,-2567.22662705093,-1989.24295499787,1093.12160384319,2233.37899928647,1940.0043697935,-1042.87236324355,740.18976956077,302.682593682784, , , , , , , , , , , , , , , , , , , , , , , , , , , , , , , , , , , , , , , , , , , , , , , , , , , , , , , , , , , , ,
1055.70919264034,727.266841291943,-328.442351348399,-1076.31164176971,-2553.98790782003,-2213.90210028532,706.700883700061,1894.66253081365,1732.88955013088,-891.488016966142,692.07577199437,199.412244971772, , , , , , , , , , , , , , , , , , , , , , , , , , , , , , , , , , , , , , , , , , , , , , , , , , , , , , , , , , , , ,
907.559332357195,560.03229704127,-347.527035315924,-963.437031407681,-2534.2113187812,-2431.89937664706,309.596615538774,1534.39328167892,1517.21227564275,-733.795814699232,627.543183836559,106.252630862673, , , , , , , , , , , , , , , , , , , , , , , , , , , , , , , , , , , , , , , , , , , , , , , , , , , , , , , , , , , , ,
759.10302567999,399.735589875963,-359.367435804027,-851.875848437965,-2509.57857164945,-2628.47276074741,-83.7920250046087,1182.82114462983,1295.42810587882,-579.419307777976,559.235230742009,20.1840770359675, , , , , , , , , , , , , , , , , , , , , , , , , , , , , , , , , , , , , , , , , , , , , , , , , , , , , , , , , , , , ,
613.620978579934,250.237370568086,-363.383608011847,-744.640303203959,-2479.66145741737,-2808.28826320131,-474.496048986229,828.337147544832,1078.52325219471,-431.92917457401,488.502293295891,-56.5731187218807, , , , , , , , , , , , , , , , , , , , , , , , , , , , , , , , , , , , , , , , , , , , , , , , , , , , , , , , , , , , ,
477.96875633905,114.6940948862,-363.27466145285,-643.799747702522,-2447.20215782801,-2965.53078465297,-837.705334719462,491.345852754764,866.977217323725,-296.331425612625,420.62170889595,-124.290283283325, , , , , , , , , , , , , , , , , , , , , , , , , , , , , , , , , , , , , , , , , , , , , , , , , , , , , , , , , , , , ,
349.007492553507,-4.55892633309776,-353.566418886605,-551.269822232382,-2413.08109240523,-3091.88246832676,-1170.92020713528,179.658103455522,667.477343566332,-172.224283110205,351.286955720056,-179.062672609851, , , , , , , , , , , , , , , , , , , , , , , , , , , , , , , , , , , , , , , , , , , , , , , , , , , , , , , , , , , , ,
231.170961579424,-106.073435325778,-337.244396905203,-468.053590474721,-2376.1262661172,-3190.73729366055,-1473.50318899518,-112.840955388626,483.669644677613,-62.5487631268226,284.207679242313,-221.658916115491, , , , , , , , , , , , , , , , , , , , , , , , , , , , , , , , , , , , , , , , , , , , , , , , , , , , , , , , , , , , ,
124.155310701941,-190.093886533324,-314.249197235265,-394.436483419097,-2337.0271784228,-3260.90052377443,-1733.13759452286,-372.881176508613,318.070392319393,32.9692879156916,219.202253968603,-252.171541884294, , , , , , , , , , , , , , , , , , , , , , , , , , , , , , , , , , , , , , , , , , , , , , , , , , , , , , , , , , , , ,
25.3786224078919,-260.628786915542,-286.007409323434,-330.105593667509,-2296.62580854126,-3302.05020328926,-1950.60878957308,-591.790243558805,172.260945401378,117.625082253825,155.693015865663,-273.318098119488, , , , , , , , , , , , , , , , , , , , , , , , , , , , , , , , , , , , , , , , , , , , , , , , , , , , , , , , , , , , ,
-59.6400293167033,-310.802026309693,-251.161996992989,-274.558037184173,-2252.00404593704,-3314.76437993703,-2119.06670583846,-774.840688811385,46.8897593035659,185.221027813198,95.7609838381432,-280.982011651341, , , , , , , , , , , , , , , , , , , , , , , , , , , , , , , , , , , , , , , , , , , , , , , , , , , , , , , , , , , , ,
-131.349102650569,-346.964204147367,-215.615101496798,-226.675306381281,-2204.17166448495,-3300.50042348971,-2242.9572718836,-923.286848233015,-57.9429082269011,239.156653398968,42.1329994231148,-281.289652822083, , , , , , , , , , , , , , , , , , , , , , , , , , , , , , , , , , , , , , , , , , , , , , , , , , , , , , , , , , , , ,
-190.702029349493,-371.61374846827,-180.911719118778,-185.153821697768,-2152.9897839928,-3261.52544607953,-2340.41464950762,-1035.42681409986,-143.184017538983,281.157888908882,-4.89515511535735,-276.262733793524, , , , , , , , , , , , , , , , , , , , , , , , , , , , , , , , , , , , , , , , , , , , , , , , , , , , , , , , , , , , ,
-239.054584358833,-385.632947978055,-146.578363619222,-148.685070930766,-2098.56765991938,-3208.51339083239,-2386.62963434143,-1112.25558123706,-210.811279366992,312.343766168445,-46.2381103698054,-266.105655798639, , , , , , , , , , , , , , , , , , , , , , , , , , , , , , , , , , , , , , , , , , , , , , , , , , , , , , , , , , , , ,
-278.048401352651,-391.859210551903,-113.810809199252,-115.993812707394,-2041.29208654775,-3129.53666451338,-2399.36897816213,-1161.12717724465,-263.225320244785,334.953805952277,-82.1187960766997,-252.835009875577, , , , , , , , , , , , , , , , , , , , , , , , , , , , , , , , , , , , , , , , , , , , , , , , , , , , , , , , , , , , ,
-309.48817587318,-393.11617525913,-83.6279993859499,-85.9290326886212,-1981.81419355515,-3038.92785200221,-2385.44535877311,-1186.04596542,-302.182078921372,351.302175566155,-112.930088243615,-238.37208732254, , , , , , , , , , , , , , , , , , , , , , , , , , , , , , , , , , , , , , , , , , , , , , , , , , , , , , , , , , , , ,
-335.219757729951,-388.90554779242,-53.6857900624695,-57.6204820063843,-1920.99726536732,-2943.51606248479,-2345.02258366443,-1190.63725697235,-331.231073670154,362.062652761186,-140.766983833741,-221.295668927445, , , , , , , , , , , , , , , , , , , , , , , , , , , , , , , , , , , , , , , , , , , , , , , , , , , , , , , , , , , , ,
-357.01577804498,-387.713459756596,-30.6976817116164,-30.4707186214072,-1859.83371520413,-2844.04312716148,-2280.8140129519,-1179.85744439227,-353.178858572902,372.364618900788,-163.159048166682,-209.205570734106, , , , , , , , , , , , , , , , , , , , , , , , , , , , , , , , , , , , , , , , , , , , , , , , , , , , , , , , , , , , ,
-376.47476170739,-388.847524505831,-12.3727627984409,-4.07832918576372,-1820.10921877538,-2760.31233069507,-2203.92618407726,-1158.46987557453,-370.108268751163,382.66114310661,-182.050999454474,-200.610143652136, , , , , , , , , , , , , , , , , , , , , , , , , , , , , , , , , , , , , , , , , , , , , , , , , , , , , , , , , , , , ,
-394.938822502342,-393.564059494006,1.37476300833656,22.0088427436675,-1788.58475116204,-2657.78417135697,-2122.52495088653,-1130.8249285028,-384.273929318096,394.251440998174,-198.156792755339,-196.094648242835, , , , , , , , , , , , , , , , , , , , , , , , , , , , , , , , , , , , , , , , , , , , , , , , , , , , , , , , , , , , ,
-413.433927189367,-402.924694407331,10.5092327820363,47.3928996908338,-1750.9676778658,-2548.99356791755,-2037.76297807295,-1100.68737644193,-397.553780672798,408.179310798349,-211.971579985702,-196.207730812647, , , , , , , , , , , , , , , , , , , , , , , , , , , , , , , , , , , , , , , , , , , , , , , , , , , , , , , , , , , , ,
-432.635270382848,-414.335241157388,18.3000292254602,71.7443830664839,-1725.82174801653,-2457.91637481915,-1953.83528181104,-1071.11647449729,-411.389015833045,423.485255770118,-225.467649804154,-198.017605965964, , , , , , , , , , , , , , , , , , , , , , , , , , , , , , , , , , , , , , , , , , , , , , , , , , , , , , , , , , , , ,
-452.858578513385,-434.186075688252,18.6725028251322,94.6021431656515,-1703.46231821019,-2379.60304911192,-1873.95620541924,-1042.57808024376,-425.85192299251,443.522327100819,-235.765540669258,-207.75678643156, , , , , , , , , , , , , , , , , , , , , , , , , , , , , , , , , , , , , , , , , , , , , , , , , , , , , , , , , , , , ,
-474.076342017421,-459.05204797911,15.0242940383108,115.437422424536,-1667.66722739834,-2304.43554813923,-1800.33096566078,-1019.49100894152,-442.320403698296,466.564194998266,-244.550318027866,-222.0138769704, , , , , , , , , , , , , , , , , , , , , , , , , , , , , , , , , , , , , , , , , , , , , , , , , , , , , , , , , , , , ,
-495.956271711155,-488.149468692269,7.80680301888571,133.71664981192,-1651.35175365227,-2230.86686363261,-1734.19050543816,-1001.89462808076,-461.771907606187,492.052870201712,-251.88153736502,-240.171332836692, , , , , , , , , , , , , , , , , , , , , , , , , , , , , , , , , , , , , , , , , , , , , , , , , , , , , , , , , , , , ,
-517.917840615223,-520.446000467571,-2.5281598523476,148.958463737746,-1611.57099009643,-2154.82420933175,-1675.63834131357,-989.491973223756,-481.738296945498,519.181920541397,-257.694840381438,-261.487080159959, , , , , , , , , , , , , , , , , , , , , , , , , , , , , , , , , , , , , , , , , , , , , , , , , , , , , , , , , , , , ,
-539.201700377365,-554.68258823298,-15.4808878556156,160.781790509389,-1590.06224069265,-2092.09497713703,-1620.72880629459,-981.803777558534,-502.279848562421,546.942144305173,-261.860406260874,-285.081738044298, , , , , , , , , , , , , , , , , , , , , , , , , , , , , , , , , , , , , , , , , , , , , , , , , , , , , , , , , , , , ,
-558.946128872336,-589.460297362077,-30.5141684897411,168.943011458099,-1550.82538497308,-2031.06884515767,-1576.07644883918,-977.904125835335,-524.53027237681,574.203213117207,-264.215980191297,-309.987232925909, , , , , , , , , , , , , , , , , , , , , , , , , , , , , , , , , , , , , , , , , , , , , , , , , , , , , , , , , , , , ,
-574.718040572128,-623.328230786223,-48.6101902140946,173.361142586555,-1525.75290174692,-1970.66303148025,-1536.41326317455,-976.55863162598,-546.878556038323,599.023135679175,-263.053925179017,-335.969210500159, , , , , , , , , , , , , , , , , , , , , , , , , , , , , , , , , , , , , , , , , , , , , , , , , , , , , , , , , , , , ,
-586.914392037121,-654.86840692966,-67.954014892539,174.130462313366,-1492.41589048371,-1909.70018857115,-1500.09759944706,-976.363783259247,-567.008982854393,620.891399483391,-259.480188572291,-361.411210911099, , , , , , , , , , , , , , , , , , , , , , , , , , , , , , , , , , , , , , , , , , , , , , , , , , , , , , , , , , , , ,
-597.098125643049,-682.773598993212,-85.6754733501629,171.520268099674,-1450.61518695473,-1847.03534928966,-1464.17939495005,-975.878612326022,-583.902671900175,639.935862318131,-255.711326146443,-384.224536171688, , , , , , , , , , , , , , , , , , , , , , , , , , , , , , , , , , , , , , , , , , , , , , , , , , , , , , , , , , , , ,
-599.788824446631,-705.914369605021,-106.12554515839,165.961672677351,-1400.42560367183,-1781.66635534559,-1425.73776210307,-973.741231705692,-598.797483027449,652.851597025826,-246.831639644121,-406.019957381705, , , , , , , , , , , , , , , , , , , , , , , , , , , , , , , , , , , , , , , , , , , , , , , , , , , , , , , , , , , , ,
-600.350971088613,-723.391995028203,-123.04102393959,158.021836058156,-1338.72175857306,-1712.82157536582,-1389.43725933933,-968.764502547097,-607.440874746792,661.871483058408,-238.654973574511,-423.216509483897, , , , , , , , , , , , , , , , , , , , , , , , , , , , , , , , , , , , , , , , , , , , , , , , , , , , , , , , , , , , ,
-593.04553499698,-734.574762430677,-141.529227433697,148.366921342565,-1271.87839881684,-1640.02100459099,-1350.53001033301,-956.535918965334,-611.434947832135,663.810148713829,-225.758153781641,-438.051994932187, , , , , , , , , , , , , , , , , , , , , , , , , , , , , , , , , , , , , , , , , , , , , , , , , , , , , , , , , , , , ,
-580.902869479537,-737.793241829559,-156.890372350022,137.716315931228,-1200.08624443214,-1563.10919173707,-1308.19150898404,-941.814982816295,-610.48555142466,659.348055654548,-212.006248564757,-447.341807089791, , , , , , , , , , , , , , , , , , , , , , , , , , , , , , , , , , , , , , , , , , , , , , , , , , , , , , , , , , , , ,
-564.197160391104,-734.952762780795,-170.75560238969,126.792021112132,-1124.33310502937,-1482.26070749043,-1261.96555602876,-921.606059900676,-604.525644995286,649.57496158595,-196.720779000707,-452.854182585242, , , , , , , , , , , , , , , , , , , , , , , , , , , , , , , , , , , , , , , , , , , , , , , , , , , , , , , , , , , , ,
-543.383184106521,-726.438130326944,-183.054946220423,116.268155451253,-1044.89410716144,-1394.16028916152,-1207.48326752197,-895.97685201207,-593.706066562809,634.910657216732,-180.164118943049,-454.746538273684, , , , , , , , , , , , , , , , , , , , , , , , , , , , , , , , , , , , , , , , , , , , , , , , , , , , , , , , , , , , ,
-519.064103164162,-711.875450591788,-192.811347427626,106.860866737146,-962.735977765365,-1304.81292830022,-1152.77169592825,-867.877714598477,-578.37350181388,615.469776877975,-163.126377868268,-452.343399009707, , , , , , , , , , , , , , , , , , , , , , , , , , , , , , , , , , , , , , , , , , , , , , , , , , , , , , , , , , , , ,
-491.953159349204,-691.907084868011,-199.953925518807,98.8775937238699,-879.327693267503,-1215.91911017515,-1095.74159858783,-831.504621502489,-561.184698887613,591.930122108608,-145.999616915198,-445.930505193409, , , , , , , , , , , , , , , , , , , , , , , , , , , , , , , , , , , , , , , , , , , , , , , , , , , , , , , , , , , , ,
-462.832454309417,-667.325640297119,-204.493185987702,92.676074127507,-795.149313317779,-1126.4855408049,-1036.31304921951,-791.833353437682,-538.808357967539,565.079047303268,-129.169634160857,-435.909413142411, , , , , , , , , , , , , , , , , , , , , , , , , , , , , , , , , , , , , , , , , , , , , , , , , , , , , , , , , , , , ,
-435.65075736983,-639.023474549361,-203.372717179531,88.2384451074043,-711.738169955641,-1037.72385169322,-975.409530886971,-749.709598819846,-515.306052779931,537.337115959595,-116.139020095149,-421.198095864446, , , , , , , , , , , , , , , , , , , , , , , , , , , , , , , , , , , , , , , , , , , , , , , , , , , , , , , , , , , , ,
-407.908982294042,-607.942585748109,-200.033603454067,85.6147807688679,-631.297517926428,-950.852947083309,-914.04744959289,-706.055039500837,-490.259899806072,507.925784021076,-103.937689419988,-403.988094601088, , , , , , , , , , , , , , , , , , , , , , , , , , , , , , , , , , , , , , , , , , , , , , , , , , , , , , , , , , , , ,
-379.244143671915,-573.855876127828,-194.611732455912,84.71085381202,-553.646964217424,-867.036850184003,-853.269709623092,-661.812470570731,-464.110849438294,476.550009899872,-92.3162056080013,-384.23380429187, , , , , , , , , , , , , , , , , , , , , , , , , , , , , , , , , , , , , , , , , , , , , , , , , , , , , , , , , , , , ,
-351.005476625388,-539.999933960008,-188.99445733462,85.2591330964925,-482.707866592805,-787.330985235522,-794.085762030095,-618.682846971896,-437.594828939713,445.502705292698,-81.005509645384,-364.497195647314, , , , , , , , , , , , , , , , , , , , , , , , , , , , , , , , , , , , , , , , , , , , , , , , , , , , , , , , , , , , ,
-325.909055079849,-506.117202933238,-180.208147853389,86.9303373042794,-418.910335250835,-707.046708554312,-737.420867868366,-580.99374446204,-411.389646220489,416.013129006544,-72.8504536132303,-343.162675393313, , , , , , , , , , , , , , , , , , , , , , , , , , , , , , , , , , , , , , , , , , , , , , , , , , , , , , , , , , , , ,
-302.710090941304,-472.849506449895,-170.139415508591,89.2766159693645,-361.959523811871,-637.634226742759,-684.076326146429,-543.022350487804,-386.091986212397,387.7797986956,-66.2853377163564,-321.494460979243, , , , , , , , , , , , , , , , , , , , , , , , , , , , , , , , , , , , , , , , , , , , , , , , , , , , , , , , , , , , ,
-281.748995579191,-440.81269308234,-159.063697503148,91.9798739194086,-310.903049273608,-575.163433612439,-632.291675285159,-506.872090582752,-362.201518367726,361.280844330766,-61.3426490380214,-299.938195292744, , , , , , , , , , , , , , , , , , , , , , , , , , , , , , , , , , , , , , , , , , , , , , , , , , , , , , , , , , , , ,
-263.240459971173,-410.498023305862,-147.257563334689,94.5648626026961,-264.784768112758,-519.287431520091,-585.813369630821,-476.510890368947,-340.112101363146,336.869241638518,-57.9914483182421,-278.877793320276, , , , , , , , , , , , , , , , , , , , , , , , , , , , , , , , , , , , , , , , , , , , , , , , , , , , , , , , , , , , ,
-246.633100716163,-382.271449525067,-135.638348808904,96.5909132171961,-229.459431627848,-470.104967756945,-545.709663565139,-449.365916293121,-320.109630084019,314.452275120615,-55.4973759536297,-258.954899166985, , , , , , , , , , , , , , , , , , , , , , , , , , , , , , , , , , , , , , , , , , , , , , , , , , , , , , , , , , , , ,
-231.565670457353,-355.674445459391,-124.108775002038,97.9418675390563,-201.210317607457,-427.526702758788,-510.479172588002,-425.589196496706,-302.375687738027,293.620057958372,-53.7284477276574,-239.891610230714, , , , , , , , , , , , , , , , , , , , , , , , , , , , , , , , , , , , , , , , , , , , , , , , , , , , , , , , , , , , ,
-219.201472982629,-331.712621716463,-112.511148733833,98.2893571745105,-179.55855045969,-391.297443270447,-480.105568974163,-405.20589466433,-286.995858665148,275.457047349546,-53.3451621243979,-222.111885225148, , , , , , , , , , , , , , , , , , , , , , , , , , , , , , , , , , , , , , , , , , , , , , , , , , , , , , , , , , , , ,
-209.304588586062,-310.711221612994,-101.406633026933,97.3210914538783,-163.881809514139,-356.719273380348,-454.437181248327,-388.131327535899,-273.971362439474,260.007905099528,-53.9489777795645,-206.058927319964, , , , , , , , , , , , , , , , , , , , , , , , , , , , , , , , , , , , , , , , , , , , , , , , , , , , , , , , , , , , ,
-201.49357442093,-292.176995695059,-90.6834212741297,95.1137118294503,-153.451327624399,-331.690810162253,-433.210267739693,-374.191299974336,-263.232625858878,246.835285057995,-55.4050765733998,-191.430208484595, , , , , , , , , , , , , , , , , , , , , , , , , , , , , , , , , , , , , , , , , , , , , , , , , , , , , , , , , , , , ,
-195.566032720421,-276.023880388433,-80.4578476680112,91.7213876421271,-147.470595893348,-311.974457315019,-416.074404722681,-363.143896326766,-254.653523819478,235.794956554427,-57.554092526205,-178.240864028222, , , , , , , , , , , , , , , , , , , , , , , , , , , , , , , , , , , , , , , , , , , , , , , , , , , , , , , , , , , , ,
-191.945645978987,-262.122391765254,-70.1767457862669,87.2869489949341,-145.11386987602,-296.489012412114,-402.618149264817,-354.701073571648,-248.065256855364,227.034018872121,-60.8844500963601,-166.149568775761, , , , , , , , , , , , , , , , , , , , , , , , , , , , , , , , , , , , , , , , , , , , , , , , , , , , , , , , , , , , ,
-188.843982404182,-250.312589628525,-61.4686072243432,82.1034039429862,-145.562541484431,-284.597616829803,-392.393461073452,-348.548710639626,-243.269131838364,219.578286016354,-63.6876875899192,-155.890598426434, , , , , , , , , , , , , , , , , , , , , , , , , , , , , , , , , , , , , , , , , , , , , , , , , , , , , , , , , , , , ,
-186.548898692324,-240.414471662544,-53.8655729702197,76.1190145728547,-148.037573575861,-275.676893823575,-384.937764931834,-344.364134501339,-240.047815267512,213.481685177435,-66.3416628610523,-147.140022316382, , , , , , , , , , , , , , , , , , , , , , , , , , , , , , , , , , , , , , , , , , , , , , , , , , , , , , , , , , , , ,
-185.566504038733,-232.235929300671,-46.6694252619385,69.6826595966372,-151.826523774933,-269.138345354666,-379.792939798247,-341.830527460194,-238.174890335617,208.901216669702,-69.4485393883969,-139.452677281305, , , , , , , , , , , , , , , , , , , , , , , , , , , , , , , , , , , , , , , , , , , , , , , , , , , , , , , , , , , , ,
-185.029483598576,-225.578708738599,-40.5492251400236,63.1033293224166,-156.304174185933,-264.44495097135,-376.413113949374,-340.647973902524,-237.422737310345,205.304096168588,-72.240129229276,-133.063966939312, , , , , , , , , , , , , , , , , , , , , , , , , , , , , , , , , , , , , , , , , , , , , , , , , , , , , , , , , , , , ,
-184.245866663137,-220.242954405011,-35.9970877418742,56.3895686351636,-160.946343232482,-261.122901485196,-370.212570834667,-340.541185087945,-237.568862118276,202.244410534074,-74.1243894606311,-128.120021073443, , , , , , , , , , , , , , , , , , , , , , , , , , , , , , , , , , , , , , , , , , , , , , , , , , , , , , , , , , , , ,
-183.330409162231,-213.457770503494,-30.1273613412637,50.0158328448188,-165.336983968864,-258.768661448023,-369.384485558816,-341.264133531341,-236.940161967635,198.394089832863,-76.6015239104833,-121.792565922379, , , , , , , , , , , , , , , , , , , , , , , , , , , , , , , , , , , , , , , , , , , , , , , , , , , , , , , , , , , , ,
-182.86990644584,-207.499640768639,-24.6297343227988,43.9280939050996,-166.265236856572,-257.051731579809,-369.342812970593,-339.602971309122,-237.084023670817,195.18477360724,-79.1200860615205,-116.064687545719, , , , , , , , , , , , , , , , , , , , , , , , , , , , , , , , , , , , , , , , , , , , , , , , , , , , , , , , , , , , ,
-181.530262657605,-202.218100395217,-20.6878377376119,38.3935550646063,-166.546061880733,-255.713607749478,-369.821160246814,-341.018712894999,-238.702541204751,191.874181526412,-80.4212124599967,-111.452969066415, , , , , , , , , , , , , , , , , , , , , , , , , , , , , , , , , , , , , , , , , , , , , , , , , , , , , , , , , , , , ,
-180.785086827643,-197.478583434747,-16.6934966071043,33.4389891488482,-166.03158139871,-250.54932235216,-370.601132266499,-342.903891006837,-240.494740487044,189.131835131195,-82.045795110269,-107.086040020926, , , , , , , , , , , , , , , , , , , , , , , , , , , , , , , , , , , , , , , , , , , , , , , , , , , , , , , , , , , , ,
-178.723382739607,-193.16338251548,-14.4399997758725,29.4418728915694,-164.657061307856,-245.292965245174,-371.509770117628,-344.909091951891,-242.321842962234,185.943382627544,-82.1416914818672,-103.801691145676, , , , , , , , , , , , , , , , , , , , , , , , , , , , , , , , , , , , , , , , , , , , , , , , , , , , , , , , , , , , ,
-177.175808078787,-189.172082456694,-11.9962743779075,26.1591754103206,-162.427281762269,-239.846324382965,-372.415341074635,-346.939206441764,-244.063728316342,183.173945267741,-82.5897668504395,-100.584178417301, , , , , , , , , , , , , , , , , , , , , , , , , , , , , , , , , , , , , , , , , , , , , , , , , , , , , , , , , , , , ,
-174.52010686749,-185.421459145088,-10.9013522775985,23.4191912140018,-159.401760623334,-234.161247235404,-373.222062489261,-348.91718758249,-245.618998208016,179.970783006289,-81.8093772949455,-98.1614057113434, , , , , , , , , , , , , , , , , , , , , , , , , , , , , , , , , , , , , , , , , , , , , , , , , , , , , , , , , , , , ,
-171.831123422411,-181.844860950514,-10.0137375281032,21.4688040469043,-155.679875267668,-228.23028888877,-373.864340314208,-350.778896930007,-246.905091283831,176.837992186463,-80.9086929471537,-95.9292992393088, , , , , , , , , , , , , , , , , , , , , , , , , , , , , , , , , , , , , , , , , , , , , , , , , , , , , , , , , , , , ,
-168.938215883521,-178.391129972856,-9.4529140893343,19.9784135186082,-151.386736142957,-222.077336482722,-374.301066264404,-352.468554356712,-247.858553294455,173.664672928189,-79.7426508970934,-93.9220220310951, , , , , , , , , , , , , , , , , , , , , , , , , , , , , , , , , , , , , , , , , , , , , , , , , , , , , , , , , , , , ,
-165.611229833272,-175.023152263967,-9.41192243069498,19.0171045497834,-146.660463677144,-215.748658264488,-369.489616186434,-353.935227234229,-248.435450040224,170.31719104862,-78.0996537012886,-92.2175373473313, , , , , , , , , , , , , , , , , , , , , , , , , , , , , , , , , , , , , , , , , , , , , , , , , , , , , , , , , , , , ,
-162.47594942525,-171.716137804904,-9.2401883796539,18.2499712171232,-141.641322071074,-209.304729884652,-364.531734413814,-355.130715427136,-248.611799972173,167.096043615077,-76.6178805227978,-90.4781630922788, , , , , , , , , , , , , , , , , , , , , , , , , , , , , , , , , , , , , , , , , , , , , , , , , , , , , , , , , , , , ,
-158.961348397525,-168.455728570396,-9.49438017287038,17.8633536761103,-136.462969498947,-202.813092010059,-359.466741272297,-356.009049511754,-248.383811180513,163.708538483961,-74.7334841123273,-88.9750543716331, , , , , , , , , , , , , , , , , , , , , , , , , , , , , , , , , , , , , , , , , , , , , , , , , , , , , , , , , , , , ,
-155.535736676605,-165.236029970824,-9.70029329421881,17.5600810834222,-131.245902785445,-196.342390722554,-354.338954230773,-356.527608331527,-247.76764493047,160.385883323715,-72.9177216911932,-87.4681616325217, , , , , , , , , , , , , , , , , , , , , , , , , , , , , , , , , , , , , , , , , , , , , , , , , , , , , , , , , , , , ,
-155.14662648814,-162.05766270498,-6.91103621683977,18.2908251646593,-126.093021948827,-189.957651945956,-349.193657837907,-356.649611898432,-246.798414919891,158.60214459656,-74.1177951356501,-84.48434946091, , , , , , , , , , , , , , , , , , , , , , , , , , , , , , , , , , , , , , , , , , , , , , , , , , , , , , , , , , , , ,
-156.556706198534,-158.925932728925,-2.3692265303904,20.6468436200755,-121.087125726038,-183.716753390265,-344.073877903644,-352.234269653275,-245.528191349071,157.74131946373,-77.0937398340719,-80.6475796296577, , , , , , , , , , , , , , , , , , , , , , , , , , , , , , , , , , , , , , , , , , , , , , , , , , , , , , , , , , , , ,
-158.87263002043,-155.849208597142,3.02342142328859,20.71570168415,-116.290072869751,-177.667992199347,-339.01791669054,-347.612925171079,-243.510024893304,157.360919308786,-80.9480257218593,-76.4128935869267, , , , , , , , , , , , , , , , , , , , , , , , , , , , , , , , , , , , , , , , , , , , , , , , , , , , , , , , , , , , ,
-155.733537289307,-152.837575844295,2.89596144501171,20.7694202747532,-111.743301037831,-171.848609179431,-334.057589284203,-342.824496432289,-241.434593933188,154.285556566801,-79.314749367159,-74.9708071996417, , , , , , , , , , , , , , , , , , , , , , , , , , , , , , , , , , , , , , , , , , , , , , , , , , , , , , , , , , , , ,
-152.752713607874,-149.901809438154,2.85090416972081,21.0118896765896,-107.469379356269,-166.284117973975,-329.217100091802,-337.908712967135,-239.317375225931,151.327261523014,-77.8018088887975,-73.5254526342165, , , , , , , , , , , , , , , , , , , , , , , , , , , , , , , , , , , , , , , , , , , , , , , , , , , , , , , , , , , , ,
-149.938471134379,-147.05266798705,2.88580314732905,20.9928828262479,-103.47427480638,-160.988290334907,-324.512500351924,-332.905702221905,-237.171479814941,148.495569560714,-76.4121371408538,-72.0834324198604, , , , , , , , , , , , , , , , , , , , , , , , , , , , , , , , , , , , , , , , , , , , , , , , , , , , , , , , , , , , ,
-147.294837518162,-144.30046852549,2.99436899267186,20.9184256739999,-99.7500298925317,-155.963657741106,-319.951663758192,-327.855741645818,-235.007549315507,145.797653021826,-75.1446032554168,-70.6530497664093, , , , , , , , , , , , , , , , , , , , , , , , , , , , , , , , , , , , , , , , , , , , , , , , , , , , , , , , , , , , ,
-144.823561000182,-141.654858456995,3.16870254318734,21.1514458085438,-96.2775758701359,-151.202400245863,-315.534705169915,-322.799036723254,-232.83389481479,143.239209728588,-73.9961317716845,-69.2430779569037, , , , , , , , , , , , , , , , , , , , , , , , , , , , , , , , , , , , , , , , , , , , , , , , , , , , , , , , , , , , ,
-142.52591807227,-139.124678830272,3.40123924199849,21.203945557714,-93.0294419838582,-146.687505252717,-311.254749913096,-317.775377472847,-230.656797576796,140.825298451271,-72.9635786571342,-67.8617197941367, , , , , , , , , , , , , , , , , , , , , , , , , , , , , , , , , , , , , , , , , , , , , , , , , , , , , , , , , , , , ,
-140.404174347951,-136.717820807279,3.68635354067179,21.2111569192551,-89.9721700674265,-142.394094457191,-307.098946295354,-312.823543565922,-228.480872134271,138.560997577615,-72.0452639443112,-66.5157336333038, , , , , , , , , , , , , , , , , , , , , , , , , , , , , , , , , , , , , , , , , , , , , , , , , , , , , , , , , , , , ,
-138.462625321197,-134.441008485155,4.02161683604173,21.4536259280582,-89.9721700674265,-138.290838344718,-303.049611473698,-307.98037728292,-226.309390771776,136.451816903176,-71.2421210786192,-65.2096958245568, , , , , , , , , , , , , , , , , , , , , , , , , , , , , , , , , , , , , , , , , , , , , , , , , , , , , , , , , , , , ,
-136.708186143173,-132.299480000854,4.40870614231959,21.436583954863,-89.9721700674265,-134.341402450712,-299.085415326101,-303.27951389894,-224.144489436621,134.503833072014,-70.5584461427463,-63.9453869292671, , , , , , , , , , , , , , , , , , , , , , , , , , , , , , , , , , , , , , , , , , , , , , , , , , , , , , , , , , , , ,
-135.150511047189,-130.296573641207,4.85393740598112,21.5015121745972,-87.2540378902366,-130.505892224989,-295.182532612097,-298.749832788846,-221.987213198202,132.723542344198,-70.0022242265847,-62.7213181176133, , , , , , , , , , , , , , , , , , , , , , , , , , , , , , , , , , , , , , , , , , , , , , , , , , , , , , , , , , , , ,
-133.801633405458,-128.433254344341,5.36837906111679,21.8181193622831,-81.77592602181,-126.742278087786,-291.315719076769,-294.413756344504,-219.837401217274,131.1174438749,-69.5850062332873,-61.5324376416123, , , , , , , , , , , , , , , , , , , , , , , , , , , , , , , , , , , , , , , , , , , , , , , , , , , , , , , , , , , , ,
-132.675148030309,-126.707638646892,5.96750938341744,22.1146170511515,-76.1728690794371,-123.00778889801,-287.459287046076,-290.285569270558,-217.693447519389,129.6913933386,-69.3213287068631,-60.3700646317372, , , , , , , , , , , , , , , , , , , , , , , , , , , , , , , , , , , , , , , , , , , , , , , , , , , , , , , , , , , , ,
-131.785001584376,-125.114588450026,6.67041313435003,22.1547371738175,-73.4209830456484,-119.260265346258,-283.587973843249,-286.369952314432,-215.552005638941,128.449795017201,-69.227707359363,-59.2220876578382, , , , , , , , , , , , , , , , , , , , , , , , , , , , , , , , , , , , , , , , , , , , , , , , , , , , , , , , , , , , ,
-131.14399265813,-123.64543862336,7.4985540347701,22.5027899024212,-70.576407998998,-115.45946683628,-279.677713367064,-282.66092502867,-213.407735484663,127.394715640745,-69.3212733464498,-58.0734422942949, , , , , , , , , , , , , , , , , , , , , , , , , , , , , , , , , , , , , , , , , , , , , , , , , , , , , , , , , , , , ,
-130.76209406833,-122.287898817073,8.47419525125712,22.8885233141926,-67.6012315095968,-111.568322128506,-275.706330594998,-279.141378603047,-211.25321130105,126.524996442701,-69.6181446597933,-56.9068517829078, , , , , , , , , , , , , , , , , , , , , , , , , , , , , , , , , , , , , , , , , , , , , , , , , , , , , , , , , , , , ,
-130.644696876726,-121.026136454442,9.61856042228361,23.7706922702473,-64.4606778912164,-107.554102429496,-271.654174071636,-275.783347287946,-209.079101871615,125.835416665584,-70.1316286495044,-55.7037880160792, , , , , , , , , , , , , , , , , , , , , , , , , , , , , , , , , , , , , , , , , , , , , , , , , , , , , , , , , , , , ,
-130.790852199271,-119.841022592129,10.9498296071412,24.4172921506794,-61.1243292237087,-103.38948142046,-267.504686670219,-272.549104837566,-206.874689816444,125.3159373957,-70.8703409032058,-54.4455964924943, , , , , , , , , , , , , , , , , , , , , , , , , , , , , , , , , , , , , , , , , , , , , , , , , , , , , , , , , , , , ,
-130.543760326726,-118.710514517542,11.8332458091833,25.432837441293,-57.5674383779143,-99.0534409433629,-263.244903273321,-269.393086692464,-204.628731691456,124.627137422134,-71.1885030679543,-53.4386343541796, , , , , , , , , , , , , , , , , , , , , , , , , , , , , , , , , , , , , , , , , , , , , , , , , , , , , , , , , , , , ,
-126.229482803541,-117.610154794745,8.61932800879582,26.978822144833,-53.7722360144195,-94.531990193199,-258.865866535447,-266.264550974742,-201.657362234409,121.919818799143,-67.4244054061683,-54.4954133929748, , , , , , , , , , , , , , , , , , , , , , , , , , , , , , , , , , , , , , , , , , , , , , , , , , , , , , , , , , , , ,
-122.258189066081,-116.513676522233,5.74451254384768,28.2849401295302,-49.7291344883363,-89.8186862869805,-254.362966807589,-263.110817488694,-198.417513740396,119.385932794157,-64.0013508049642,-55.3845819891929, , , , , , , , , , , , , , , , , , , , , , , , , , , , , , , , , , , , , , , , , , , , , , , , , , , , , , , , , , , , ,
-120.714429505205,-115.393712088179,5.32071741702531,29.6906350453309,-45.4377413138886,-84.9149629221542,-244.663967579974,-259.880867129493,-194.870567620471,118.054070796692,-63.0175734611149,-55.0364973355771, , , , , , , , , , , , , , , , , , , , , , , , , , , , , , , , , , , , , , , , , , , , , , , , , , , , , , , , , , , , ,
-121.275742783146,-114.222604044911,7.05313873823512,30.9302294155681,-40.9076038983729,-79.8302797650011,-237.959039802929,-256.529046169895,-190.998199744845,117.749173414029,-64.1644407606905,-53.5847326533381, , , , , , , , , , , , , , , , , , , , , , , , , , , , , , , , , , , , , , , , , , , , , , , , , , , , , , , , , , , , ,
-122.312902768918,-112.973310494834,9.33959227408433,33.3988429913359,-36.1586125917428,-74.582094431595,-229.975806871994,-253.018604091157,-186.803689090884,117.643106631876,-65.826247521501,-51.8168591103747, , , , , , , , , , , , , , , , , , , , , , , , , , , , , , , , , , , , , , , , , , , , , , , , , , , , , , , , , , , , ,
-123.394528562488,-114.193507296806,9.20102126568201,34.908075511371,-31.2209941623282,-69.1956366371022,-219.95757364696,-249.324798263984,-182.311564122215,118.794017929647,-66.2977749140847,-52.4962430155619, , , , , , , , , , , , , , , , , , , , , , , , , , , , , , , , , , , , , , , , , , , , , , , , , , , , , , , , , , , , ,
-124.011137533597,-115.39145090808,8.61968662551736,37.5412227268299,-26.1348376640625,-63.7034393563876,-209.913924620157,-241.79282021151,-178.958450049549,119.701294220839,-66.3154120795572,-53.3858821412814, , , , , , , , , , , , , , , , , , , , , , , , , , , , , , , , , , , , , , , , , , , , , , , , , , , , , , , , , , , , ,
-124.684909916497,-116.514436362157,8.17047355433998,39.1878225183567,-20.9491090796478,-58.1445619446964,-202.51028657657,-237.067863015013,-174.923949089552,120.599673139327,-66.4276917354183,-54.1719814039085, , , , , , , , , , , , , , , , , , , , , , , , , , , , , , , , , , , , , , , , , , , , , , , , , , , , , , , , , , , , ,
-124.733121845778,-117.509983651567,7.22313819421048,40.7926167231046,-15.7201232587743,-52.5634289317212,-194.807871224781,-228.414053819044,-170.011181023301,121.121552748673,-65.9781300199939,-55.1434227286784, , , , , , , , , , , , , , , , , , , , , , , , , , , , , , , , , , , , , , , , , , , , , , , , , , , , , , , , , , , , ,
-124.321437837907,-118.328729023817,5.99270881408926,42.3438274952065,-10.5094476165759,-47.0082085809732,-184.880958334193,-219.580914836918,-165.014992962252,121.325083430862,-65.1570733259978,-56.1680101048642, , , , , , , , , , , , , , , , , , , , , , , , , , , , , , , , , , , , , , , , , , , , , , , , , , , , , , , , , , , , ,
-123.550254693754,-118.927469566881,4.62278512687282,44.2651469898682,-5.38122354348012,-41.5286743330914,-175.114437374293,-213.666306719091,-160.492433534523,121.238862130318,-64.0865199103132,-57.1523422200042, , , , , , , , , , , , , , , , , , , , , , , , , , , , , , , , , , , , , , , , , , , , , , , , , , , , , , , , , , , , ,
-121.271827155947,-119.27212056144,1.99970659450661,46.7008108640359,-0.398933845291808,-35.2931868142708,-167.454914347811,-206.223297385719,-157.721232099259,120.271973858694,-61.6357668752267,-58.636206983467, , , , , , , , , , , , , , , , , , , , , , , , , , , , , , , , , , , , , , , , , , , , , , , , , , , , , , , , , , , , ,
-119.036990543799,-119.34030663663,-0.303316092831562,47.9095629271418,4.37826601509779,-27.0962259981338,-160.743093919978,-197.441092803398,-152.996222812187,119.188648590215,-59.3668372254834,-59.821811364731, , , , , , , , , , , , , , , , , , , , , , , , , , , , , , , , , , , , , , , , , , , , , , , , , , , , , , , , , , , , ,
-114.94969279189,-119.123301771969,-4.17360898007895,48.6314113899051,8.8994146072862,-18.3152770637473,-151.579881958539,-189.90205698158,-148.466740067301,117.03649728193,-55.3880419059055,-61.6484553760241, , , , , , , , , , , , , , , , , , , , , , , , , , , , , , , , , , , , , , , , , , , , , , , , , , , , , , , , , , , , ,
-110.865583580669,-118.627075404869,-7.76149182420012,48.6956577547067,13.1254639064815,-9.81993669001778,-146.984522562684,-184.792371863671,-144.55350495323,114.746329492769,-51.5520458782342,-63.1942836145346, , , , , , , , , , , , , , , , , , , , , , , , , , , , , , , , , , , , , , , , , , , , , , , , , , , , , , , , , , , , ,
-105.268191704843,-117.872289288964,-12.604097584121,49.8973374540568,17.0324553356699,-2.89636573224092,-138.40970943758,-177.353150112719,-142.81015760176,111.570240496904,-46.3320470603608,-65.2381934365425, , , , , , , , , , , , , , , , , , , , , , , , , , , , , , , , , , , , , , , , , , , , , , , , , , , , , , , , , , , , ,
-99.461174084401,-116.893199039446,-17.4320249550452,49.8137671098154,22.2930235991947,2.6775507527806,-130.677657979805,-173.225411797418,-140.227756597344,108.177186561924,-41.0145745646777,-67.1626119972458, , , , , , , , , , , , , , , , , , , , , , , , , , , , , , , , , , , , , , , , , , , , , , , , , , , , , , , , , , , , ,
-92.8366607369456,-115.735522815922,-22.8988620789766,50.6167536725453,26.9384674593389,10.4780028083514,-126.078500428136,-166.015805882154,-138.203148748292,104.286091776434,-34.9688993289844,-69.3171924474495, , , , , , , , , , , , , , , , , , , , , , , , , , , , , , , , , , , , , , , , , , , , , , , , , , , , , , , , , , , , ,
-85.2621984027888,-114.453441286845,-29.1912428840559,49.5706214040101,33.1699090570646,18.1615672294522,-118.119966305894,-161.757512132583,-134.975786258087,99.8578198448169,-28.0354777593663,-71.8223420854504, , , , , , , , , , , , , , , , , , , , , , , , , , , , , , , , , , , , , , , , , , , , , , , , , , , , , , , , , , , , ,
-77.4071793271872,-113.105988204172,-35.6988088769844,48.9544551253568,39.3875683325313,25.6836941069799,-110.36198470019,-156.520753985332,-132.196957705931,95.2565837656796,-20.8541852251013,-74.402398540578, , , , , , , , , , , , , , , , , , , , , , , , , , , , , , , , , , , , , , , , , , , , , , , , , , , , , , , , , , , , ,
-70.1020783143215,-111.75316451515,-41.6510862008289,48.904373708427,45.6780366626234,29.4452118290349,-102.739874821812,-150.472018298053,-131.559895805295,90.9276214147362,-14.2254960567462,-76.7021253579898, , , , , , , , , , , , , , , , , , , , , , , , , , , , , , , , , , , , , , , , , , , , , , , , , , , , , , , , , , , , ,
-62.7806765131002,-110.452131733767,-47.6714552206667,48.4198932230938,48.5691662255446,37.1592687361758,-98.0127158549789,-144.757314660458,-128.760751806568,86.6164041234337,-7.55461064621666,-79.0617934772169, , , , , , , , , , , , , , , , , , , , , , , , , , , , , , , , , , , , , , , , , , , , , , , , , , , , , , , , , , , , ,
-55.0647735713824,-109.253798251811,-54.1890246804281,46.9329946869391,54.5452100577017,45.1151879841357,-91.4753748433692,-142.090055094021,-125.997407833021,82.1592859115967,-0.437874445477021,-81.7214114661195, , , , , , , , , , , , , , , , , , , , , , , , , , , , , , , , , , , , , , , , , , , , , , , , , , , , , , , , , , , , ,
-48.6189493158759,-108.200026826696,-59.5810775108199,45.9769905911928,61.2688463240337,52.8431478438465,-83.7906370653051,-137.298916257762,-123.199937958109,78.4094880712861,5.48106409747213,-83.890552168758, , , , , , , , , , , , , , , , , , , , , , , , , , , , , , , , , , , , , , , , , , , , , , , , , , , , , , , , , , , , ,
-42.8639454346092,-107.32160253838,-64.4576571037707,46.5660026511223,68.0199976426965,57.360904545043,-75.9638617496298,-134.833120982512,-122.3074426184,75.0927739864947,10.7968558345809,-85.8896298210754, , , , , , , , , , , , , , , , , , , , , , , , , , , , , , , , , , , , , , , , , , , , , , , , , , , , , , , , , , , , ,
-37.8225223728039,-106.637031756659,-68.8145093838549,45.696272081966,71.0700516657788,65.837710803442,-68.9196783897084,-129.353110874548,-119.45213481202,72.2297770647316,15.4959935055256,-87.725770570257, , , , , , , , , , , , , , , , , , , , , , , , , , , , , , , , , , , , , , , , , , , , , , , , , , , , , , , , , , , , ,
-33.6860234550541,-106.152188715382,-72.466165260328,44.6700132416937,78.7744755219664,70.7202877377944,-63.5396545165862,-123.750124688284,-116.16591316091,69.9191060852183,19.3900709026371,-89.3091769878552, , , , , , , , , , , , , , , , , , , , , , , , , , , , , , , , , , , , , , , , , , , , , , , , , , , , , , , , , , , , ,
-30.5085720901632,-105.860772669955,-75.3522005797914,43.8582369080072,86.9218988712316,80.4442969325475,-55.0049082546121,-120.895297329254,-112.660048570446,68.1846723800591,22.4218142448142,-90.6064866248732, , , , , , , , , , , , , , , , , , , , , , , , , , , , , , , , , , , , , , , , , , , , , , , , , , , , , , , , , , , , ,
-26.9758012999726,-105.745486692248,-78.7696853922752,43.2312554342196,91.9392975613214,87.2954316354285,-46.163035809166,-115.030819703728,-110.182109736352,66.3606439961104,25.8969420461514,-92.2575860422616, , , , , , , , , , , , , , , , , , , , , , , , , , , , , , , , , , , , , , , , , , , , , , , , , , , , , , , , , , , , ,
-24.2326610490948,-105.77981427622,-81.5471532271255,42.9035099529701,99.1231265949574,95.9703232029815,-38.6353738984382,-108.655415868758,-107.089837642555,65.0062376626578,28.6572460890155,-93.663483751673, , , , , , , , , , , , , , , , , , , , , , , , , , , , , , , , , , , , , , , , , , , , , , , , , , , , , , , , , , , , ,
-22.4704115440291,-105.930258375043,-83.4598468310138,42.8662154147025,108.248907179632,107.041858891271,-31.6521294492316,-102.681037151282,-102.891570311369,64.2003349595362,30.4947176434925,-94.6950526030285, , , , , , , , , , , , , , , , , , , , , , , , , , , , , , , , , , , , , , , , , , , , , , , , , , , , , , , , , , , , ,
-21.9521317397695,-106.158905529721,-84.2067737899515,43.0984180421224,115.108824649508,115.731753520245,-26.0131797236704,-98.2628918452616,-98.501380512801,64.0555186347455,31.1273210250911,-95.1828396598364, , , , , , , , , , , , , , , , , , , , , , , , , , , , , , , , , , , , , , , , , , , , , , , , , , , , , , , , , , , , ,
-21.8146761267171,-106.426166518206,-84.6114903914888,43.5693894536566,121.952168552187,124.536757770426,-16.2175110491994,-90.8709006191553,-94.6826020272206,64.1204213224617,31.398407132386,-95.5188284548475, , , , , , , , , , , , , , , , , , , , , , , , , , , , , , , , , , , , , , , , , , , , , , , , , , , , , , , , , , , , ,
-21.1818146397395,-106.693521562915,-85.5117069231756,44.2412748700241,131.547025742356,136.691473072979,-6.05243304189702,-83.0807661493675,-91.4178802014168,63.9376681013274,32.1649461417182,-96.1026142430454, , , , , , , , , , , , , , , , , , , , , , , , , , , , , , , , , , , , , , , , , , , , , , , , , , , , , , , , , , , , ,
-21.2341100964721,-106.926078631511,-85.6919685350387,45.0717913731351,137.613104361048,145.635031262805,4.17109009214582,-78.5695748339787,-86.6526118172595,64.0800943639916,32.2289292192834,-96.3090235832748, , , , , , , , , , , , , , , , , , , , , , , , , , , , , , , , , , , , , , , , , , , , , , , , , , , , , , , , , , , , ,
-20.1635104394559,-107.094756199634,-86.9312457601785,46.016814661692,144.814943979856,154.874688192134,10.5058315334462,-70.4909601186322,-81.8307648513634,63.6291333195454,33.3838676603614,-97.0130009799066, , , , , , , , , , , , , , , , , , , , , , , , , , , , , , , , , , , , , , , , , , , , , , , , , , , , , , , , , , , , ,
-19.7479127364242,-107.177932260524,-87.4300195240994,47.032734983259,150.990380381323,161.953716790392,21.2845059177648,-61.9236380623007,-77.5978673461828,63.4629224984741,33.8410533938377,-97.3039758923116, , , , , , , , , , , , , , , , , , , , , , , , , , , , , , , , , , , , , , , , , , , , , , , , , , , , , , , , , , , , ,
-19.4621577291596,-106.517130526028,-87.0549727968681,48.0784955583601,160.45718894232,174.831961798892,32.2877665592256,-57.2037922774192,-74.3092476902342,62.9896441275939,33.7964075338544,-96.7860516614481, , , , , , , , , , , , , , , , , , , , , , , , , , , , , , , , , , , , , , , , , , , , , , , , , , , , , , , , , , , , ,
-16.996773151411,-105.383939692845,-88.3871665414341,49.1172487381659,169.46468224047,182.698427318128,41.2829734850204,-50.2700712572294,-69.7910791438451,61.1903564221282,35.6951966950117,-96.8855531171397, , , , , , , , , , , , , , , , , , , , , , , , , , , , , , , , , , , , , , , , , , , , , , , , , , , , , , , , , , , , ,
-16.1897758583113,-104.215946682059,-88.0261708237479,50.1175840460557,176.386837667456,194.434177668607,49.9486590053961,-43.4243140065657,-66.8862357875317,60.2028612701854,35.9181974827184,-96.1210587529036, , , , , , , , , , , , , , , , , , , , , , , , , , , , , , , , , , , , , , , , , , , , , , , , , , , , , , , , , , , , ,
-14.5794289418985,-103.025816401239,-88.4463874593408,51.0543056848057,182.48425302772,206.742562114639,61.433142990251,-35.9383316313727,-63.6648268606237,58.8026226715691,36.9334792587213,-95.7361019302902, , , , , , , , , , , , , , , , , , , , , , , , , , , , , , , , , , , , , , , , , , , , , , , , , , , , , , , , , , , , ,
-11.6003439896288,-101.8285962294,-90.2282522397708,51.9087632501655,188.140520498658,214.238305624896,72.4754726758899,-29.2867758852007,-61.1585911110627,56.7144701095144,39.3139541250711,-96.0284242345853, , , , , , , , , , , , , , , , , , , , , , , , , , , , , , , , , , , , , , , , , , , , , , , , , , , , , , , , , , , , ,
-10.3059973639579,-100.64034163817,-90.3343442742124,52.6687605228731,194.65626424005,227.420848669883,79.7966401133009,-19.7329631046466,-57.1888310488773,55.4731695010643,40.0141734551274,-95.4873429561915, , , , , , , , , , , , , , , , , , , , , , , , , , , , , , , , , , , , , , , , , , , , , , , , , , , , , , , , , , , , ,
-7.90951954498547,-99.476789037897,-91.5672694929116,53.3280809332747,200.634596498883,237.321274155256,90.8753526705684,-14.8268901672299,-53.5566291780198,53.6931542914415,41.8288749739632,-95.5220292654044, , , , , , , , , , , , , , , , , , , , , , , , , , , , , , , , , , , , , , , , , , , , , , , , , , , , , , , , , , , , ,
-5.79392227802515,-98.3521709729702,-92.5582486949451,53.8856809401927,206.98566146101,247.446307530156,98.6248733891056,-5.07113688557413,-50.2095137605726,52.0730466254979,43.3821632084601,-95.4552098339578, , , , , , , , , , , , , , , , , , , , , , , , , , , , , , , , , , , , , , , , , , , , , , , , , , , , , , , , , , , , ,
-4.01869052528428,-97.9235629677532,-93.9048724424689,54.3446205894139,213.935712128863,260.580726620502,110.791290785339,1.05656668340973,-45.9998100147811,50.9711267465189,44.9430909585924,-95.9142177051112, , , , , , , , , , , , , , , , , , , , , , , , , , , , , , , , , , , , , , , , , , , , , , , , , , , , , , , , , , , , ,
-2.27419674924573,-96.9754635073004,-94.7012667580547,54.7108225993102,220.698973078593,268.107649862223,118.136217596551,9.89565109614384,-43.3235653883066,49.6248301282733,46.2135350044046,-95.8383651326776, , , , , , , , , , , , , , , , , , , , , , , , , , , , , , , , , , , , , , , , , , , , , , , , , , , , , , , , , , , , ,
-1.05275284105295,-95.9941055459657,-94.9413527049128,54.9917708110356,227.587960133864,278.65368087547,130.301889214244,16.6034545571322,-39.13616452912,48.5234291935095,46.94429993193,-95.4677291254394, , , , , , , , , , , , , , , , , , , , , , , , , , , , , , , , , , , , , , , , , , , , , , , , , , , , , , , , , , , , ,
2.91137273039152,-95.0728365889005,-97.9842093192921,55.1952707440684,234.583469617591,288.081212339844,142.718559900602,22.3155704975543,-36.4875044347444,46.0807319292547,50.4477910248419,-96.5285229540964, , , , , , , , , , , , , , , , , , , , , , , , , , , , , , , , , , , , , , , , , , , , , , , , , , , , , , , , , , , , ,
3.88488742913222,-94.0025291130345,-97.8874165421668,55.3283976625161,241.199519407638,299.273164402069,150.7199202911,30.4048030671197,-34.126230055246,45.0588208419514,50.8861519856496,-95.9449728276008, , , , , , , , , , , , , , , , , , , , , , , , , , , , , , , , , , , , , , , , , , , , , , , , , , , , , , , , , , , , ,
5.40944437505294,-93.0165009674662,-98.4259453425192,55.3967487998447,247.931347458514,308.662690840805,162.641678577992,37.1541791573797,-31.726283049168,43.8035282962068,51.9176948587862,-95.7212231549928, , , , , , , , , , , , , , , , , , , , , , , , , , , , , , , , , , , , , , , , , , , , , , , , , , , , , , , , , , , , ,
8.49495960738585,-92.2467357644625,-100.741695371848,55.4040917807761,254.775363227926,321.686952793786,171.449558583664,46.0794095379053,-28.9216251726429,41.8758880785385,54.6183274896172,-96.4942155681555, , , , , , , , , , , , , , , , , , , , , , , , , , , , , , , , , , , , , , , , , , , , , , , , , , , , , , , , , , , , ,
9.58102351244514,-91.4270172521662,-101.008040764611,55.4027022479071,265.575875777943,330.688472579974,182.647624159704,52.2371433589549,-24.7980450429106,40.9229968698607,55.2945321385284,-96.2175290083889, , , , , , , , , , , , , , , , , , , , , , , , , , , , , , , , , , , , , , , , , , , , , , , , , , , , , , , , , , , , ,
13.0079891579166,-90.598259509305,-103.606248667222,55.292919822768,272.145096214997,338.380662037499,190.27963788355,61.5508912199719,-22.3951085435279,38.7951351756944,58.3071189125692,-97.1022540882634, , , , , , , , , , , , , , , , , , , , , , , , , , , , , , , , , , , , , , , , , , , , , , , , , , , , , , , , , , , , ,
14.4745084365035,-89.6578051201165,-104.13231355662,55.1255097019667,278.727979940999,346.104069300912,197.908890859656,67.2982581176308,-19.9894220667635,37.5916483418067,59.3034109965619,-96.8950593383684, , , , , , , , , , , , , , , , , , , , , , , , , , , , , , , , , , , , , , , , , , , , , , , , , , , , , , , , , , , , ,
15.7914642303545,-88.7937232824319,-104.585187512786,54.9018254901681,285.317307829721,353.843435764941,205.520085395352,74.8962956097221,-17.5840005355003,36.5011295260389,60.1883258715706,-96.6894553976093, , , , , , , , , , , , , , , , , , , , , , , , , , , , , , , , , , , , , , , , , , , , , , , , , , , , , , , , , , , , ,
17.348560857033,-88.0525433361231,-105.401104193156,54.6252589816708,291.911458500867,361.587346296565,213.103443713497,81.24235565632,-15.1797024423352,35.3519912395452,61.3748325250946,-96.7268237646396, , , , , , , , , , , , , , , , , , , , , , , , , , , , , , , , , , , , , , , , , , , , , , , , , , , , , , , , , , , , ,
19.2171797486805,-87.2195908470409,-106.436770595721,54.3023199884542,298.515469344493,369.329761680879,220.65623179649,88.4422781221876,-10.6568579632912,34.0012055491804,62.8269751722011,-96.8281807213813, , , , , , , , , , , , , , , , , , , , , , , , , , , , , , , , , , , , , , , , , , , , , , , , , , , , , , , , , , , , ,
21.4299573021255,-86.3138527371738,-107.743810039299,53.943400589907,305.141594509792,377.071117777173,228.18382413605,95.0853342306359,-7.54841645232474,32.4419477175244,64.5868836707125,-97.0288313882367, , , , , , , , , , , , , , , , , , , , , , , , , , , , , , , , , , , , , , , , , , , , , , , , , , , , , , , , , , , , ,
24.0034035726074,-84.9349098050308,-108.938313377638,53.5630659823771,311.809244684289,384.818842069255,235.700159965421,100.403469184663,-4.42914148997895,30.4657531162119,66.4708584751229,-96.9366115913346, , , , , , , , , , , , , , , , , , , , , , , , , , , , , , , , , , , , , , , , , , , , , , , , , , , , , , , , , , , , ,
26.9374568348598,-83.8093310532763,-110.746787888136,53.1797700356416,318.544252248167,392.587190678636,243.227487169114,105.714250252925,-1.26678838340337,28.4359371092084,68.8421223614981,-97.2780594707063, , , , , , , , , , , , , , , , , , , , , , , , , , , , , , , , , , , , , , , , , , , , , , , , , , , , , , , , , , , , ,
30.2167520625001,-82.5275279665213,-112.744280029021,52.8149686939944,325.377476960617,400.396384089642,250.795357181051,111.034625993344,3.2747701728444,26.1553879520108,71.4805160457609,-97.6359039977715, , , , , , , , , , , , , , , , , , , , , , , , , , , , , , , , , , , , , , , , , , , , , , , , , , , , , , , , , , , , ,
33.8134732253928,-81.0618246660244,-114.875297891417,52.4916910448735,332.342845465584,408.271107987101,258.438918080931,116.386242487221,7.21660015868673,23.624175720316,74.3443855584051,-97.9685612787209, , , , , , , , , , , , , , , , , , , , , , , , , , , , , , , , , , , , , , , , , , , , , , , , , , , , , , , , , , , , ,
37.691450271936,-79.3898752374811,-117.081325509417,52.2327152254732,339.474997843897,416.238535033471,266.196645271256,121.79392979642,10.5235698371868,20.8492124827727,77.3863878906767,-98.2356003734493, , , , , , , , , , , , , , , , , , , , , , , , , , , , , , , , , , , , , , , , , , , , , , , , , , , , , , , , , , , , ,
41.810980803232,-77.4919233780744,-119.302904181306,52.0585680034304,346.806784739644,424.326100571797,274.10773389064,127.28389914004,13.407407233576,17.8404712874214,80.5569424922693,-98.3974137796905, , , , , , , , , , , , , , , , , , , , , , , , , , , , , , , , , , , , , , , , , , , , , , , , , , , , , , , , , , , , ,
46.1337353945514,-75.3517384882068,-121.485473882758,51.9856037736477,354.366897202603,432.5593110265,282.209432712156,132.881857658603,16.3840011241789,14.6090015468279,83.8096046386549,-98.4186061854826, , , , , , , , , , , , , , , , , , , , , , , , , , , , , , , , , , , , , , , , , , , , , , , , , , , , , , , , , , , , ,
50.6270814987875,-72.957489540576,-123.584571039363,52.0244091477325,362.177898206296,440.959860580964,290.534608291185,138.611253342081,19.5242672995191,11.1652040208944,87.1058262690756,-98.2710302899698, , , , , , , , , , , , , , , , , , , , , , , , , , , , , , , , , , , , , , , , , , , , , , , , , , , , , , , , , , , , ,
55.2672526169567,-70.3025060944598,-125.569758711417,52.1787284719766,370.254860909418,449.544278319446,299.109789241607,144.491835513733,22.8393545212838,7.51762673875177,90.4185056641867,-97.9361324029383, , , , , , , , , , , , , , , , , , , , , , , , , , , , , , , , , , , , , , , , , , , , , , , , , , , , , , , , , , , , ,
60.0409795487981,-67.3858963564355,-127.426875905234,52.4450316784481,378.604727798952,458.323241472769,307.953868276905,150.538666372537,26.3340185862631,3.67245840381887,93.733927727016,-97.4063861308346, , , , , , , , , , , , , , , , , , , , , , , , , , , , , , , , , , , , , , , , , , , , , , , , , , , , , , , , , , , , ,
64.9454481505263,-64.212997078853,-129.158445229379,52.8127657516652,387.226413032138,467.301591761352,317.07755242972,156.761658562157,30.0064779353917,-0.366225535836435,97.0519466899529,-96.6857211541162, , , , , , , , , , , , , , , , , , , , , , , , , , , , , , , , , , , , , , , , , , , , , , , , , , , , , , , , , , , , ,
69.9867066292157,-60.7956158139738,-130.78232244319,53.265253737486,396.111590985121,476.478996486888,326.483563045334,163.165649446474,33.8488950296413,-4.59554540762073,100.384514536203,-95.7889691285818, , , , , , , , , , , , , , , , , , , , , , , , , , , , , , , , , , , , , , , , , , , , , , , , , , , , , , , , , , , , ,
75.1768661404259,-57.1520057916013,-132.328871932027,53.7811369383629,405.246053246335,485.851118084996,336.167507881106,169.750961570973,37.8484063955238,-9.01243017441212,103.752869036227,-94.7404388618144, , , , , , , , , , , , , , , , , , , , , , , , , , , , , , , , , , , , , , , , , , , , , , , , , , , , , , , , , , , , ,
80.5305772998194,-53.3065085695993,-133.837085869419,54.3362047133766,414.611480882103,495.411111054819,346.11928988313,176.514352073395,41.9885754309026,-13.6120343651098,107.183831584619,-93.5717972195091, , , , , , , , , , , , , , , , , , , , , , , , , , , , , , , , , , , , , , , , , , , , , , , , , , , , , , , , , , , , ,
86.0613041616035,-49.2888220085865,-135.35012617019,54.9054285254333,424.187469996856,505.151259964749,356.324886492978,183.450229240734,46.2511156931122,-18.3862410765083,110.705715165897,-92.3194740893883, , , , , , , , , , , , , , , , , , , , , , , , , , , , , , , , , , , , , , , , , , , , , , , , , , , , , , , , , , , , ,
91.7778752955296,-45.1328949444848,-136.910770240014,55.4650119332258,433.953654021768,515.064592911359,366.768322168717,190.552006464798,50.6177211836885,-23.3224901755222,114.344322767772,-91.0218325922497, , , , , , , , , , , , , , , , , , , , , , , , , , , , , , , , , , , , , , , , , , , , , , , , , , , , , , , , , , , , ,
97.6817046986395,-40.8754976215891,-138.557202320229,55.9942790078399,443.891769654817,525.146328857488,377.433653786277,197.813461073769,55.071836745899,-28.403103538525,118.119453509434,-89.716349970909, , , , , , , , , , , , , , , , , , , , , , , , , , , , , , , , , , , , , , , , , , , , , , , , , , , , , , , , , , , , ,
103.764963803299,-36.5545541259641,-140.319517929263,56.4772447258009,453.987513346533,535.39503763311,388.306793681958,205.229967198902,59.6002097648592,-33.6052048386674,122.042240866281,-88.4370360276139, , , , , , , , , , , , , , , , , , , , , , , , , , , , , , , , , , , , , , , , , , , , , , , , , , , , , , , , , , , , ,
110.009851528419,-32.2073449254992,-142.217196453919,56.9037436191882,464.232044982856,545.813419706165,399.377018133432,212.79948900753,64.1940935502041,-38.9012533014599,126.113523991169,-87.212270689709, , , , , , , , , , , , , , , , , , , , , , , , , , , , , , , , , , , , , , , , , , , , , , , , , , , , , , , , , , , , ,
116.388963468369,-27.8686959102062,-144.257659378575,57.2700386920191,474.623024676649,556.408656588514,410.638053046725,220.523258254995,68.8500219159496,-44.2601337790812,130.323311423472,-86.0631776443908, , , , , , , , , , , , , , , , , , , , , , , , , , , , , , , , , , , , , , , , , , , , , , , , , , , , , , , , , , , , ,
122.866636833533,-23.5692694254303,-146.435906258964,57.5788842440387,485.165111893664,567.192330716539,422.088682087119,228.406105836689,73.5701270606771,-49.6486837040513,134.651271546249,-85.002587842197, , , , , , , , , , , , , , , , , , , , , , , , , , , , , , , , , , , , , , , , , , , , , , , , , , , , , , , , , , , , ,
129.401072899053,-19.3340666867429,-148.735139585796,57.8390624531696,495.869901201301,578.179948921433,433.732870671282,236.456452283367,78.3620124737418,-55.0335031061549,139.068106242425,-84.0346031362696, , , , , , , , , , , , , , , , , , , , , , , , , , , , , , , , , , , , , , , , , , , , , , , , , , , , , , , , , , , , ,
135.947011861687,-15.1812401346598,-151.128251996347,58.0644493524505,506.755309855448,589.390121410182,445.579436771402,244.685980388099,83.2382182716085,-60.3828858635136,143.537631929017,-83.1547460655036, , , , , , , , , , , , , , , , , , , , , , , , , , , , , , , , , , , , , , , , , , , , , , , , , , , , , , , , , , , , ,
142.458733359213,-11.1212964501514,-153.580029809364,58.2726942971511,517.844470968763,600.843456080831,457.641329282483,253.109023438678,88.2153388530482,-65.6687184545304,148.019381584289,-82.3506631297579, , , , , , , , , , , , , , , , , , , , , , , , , , , , , , , , , , , , , , , , , , , , , , , , , , , , , , , , , , , , ,
148.893157954594,-7.15674522456578,-156.049903179159,58.4836227722428,529.164223793108,612.561236619392,469.934599961408,261.741717918713,93.3128785531562,-70.8682063650137,152.471530566877,-81.6033242018627, , , , , , , , , , , , , , , , , , , , , , , , , , , , , , , , , , , , , , , , , , , , , , , , , , , , , , , , , , , , ,
155.212821892039,-3.28221720777668,-158.495039099816,58.7174955817864,540.743326636221,624.563969632205,482.477176001086,270.600994205719,98.5519541964277,-75.965302342131,156.853930495928,-80.8886281537963, , , , , , , , , , , , , , , , , , , , , , , , , , , , , , , , , , , , , , , , , , , , , , , , , , , , , , , , , , , , ,
161.388498032238,0.514956602769246,-160.873541429468,58.9932714065594,552.610540623461,636.869909469643,495.28755327326,279.703502776167,103.953961799367,-80.9517273175033,161.131019730853,-80.1792924133497, , , , , , , , , , , , , , , , , , , , , , , , , , , , , , , , , , , , , , , , , , , , , , , , , , , , , , , , , , , , ,
167.401260055314,4.25374683968909,-163.147513215625,59.3270157120453,564.792735990285,649.49368671877,508.38352751147,289.064580379501,109.539311629813,-85.8275034475012,165.274386635469,-79.4468831879679, , , , , , , , , , , , , , , , , , , , , , , , , , , , , , , , , , , , , , , , , , , , , , , , , , , , , , , , , , , , ,
173.243841164482,7.95808444492519,-165.285756719557,59.7305769840273,577.313156946623,662.445165096835,521.781060349046,298.697345319772,115.326308643233,-90.6009628047036,169.26479894202,-78.6638361373162, , , , , , , , , , , , , , , , , , , , , , , , , , , , , , , , , , , , , , , , , , , , , , , , , , , , , , , , , , , , ,
178.921203321114,11.6552832865762,-167.265920034538,60.2106206336207,590.189956743865,675.72863118557,535.493349816169,308.611984611,121.33022920964,-95.2882433038451,173.093561677826,-77.8053183739811, , , , , , , , , , , , , , , , , , , , , , , , , , , , , , , , , , , , , , , , , , , , , , , , , , , , , , , , , , , , ,
184.450290867591,15.3743541999893,-169.075936667601,60.7680780689637,603.435089748175,689.342388483681,549.530152221076,318.815270419862,127.562628161287,-99.9123225337898,176.763113767596,-76.8507912338061, , , , , , , , , , , , , , , , , , , , , , , , , , , , , , , , , , , , , , , , , , , , , , , , , , , , , , , , , , , , ,
189.859001018994,19.1443430394227,-170.714657979571,61.3980320930812,617.053619113765,703.278785437505,563.897384120653,329.310320781033,134.03089913083,-104.501672029208,180.286829499282,-75.7851574700742, , , , , , , , , , , , , , , , , , , , , , , , , , , , , , , , , , , , , , , , , , , , , , , , , , , , , , , , , , , , ,
195.184475746197,22.9928184161859,-172.191657330011,62.0900197241441,631.043461781677,717.524660556514,578.597013907328,340.096599753485,140.738100601416,-109.088647081191,183.688066538105,-74.5994194569129, , , , , , , , , , , , , , , , , , , , , , , , , , , , , , , , , , , , , , , , , , , , , , , , , , , , , , , , , , , , ,
200.470895255791,26.9446198611225,-173.526275394669,62.8286957684742,645.395551110789,732.062144702095,593.627232355485,351.170138398237,147.683048263596,-113.707757558457,186.99858532523,-73.2908277667732, , , , , , , , , , , , , , , , , , , , , , , , , , , , , , , , , , , , , , , , , , , , , , , , , , , , , , , , , , , , ,
205.767009193146,31.0209538188474,-174.746055374298,63.5947730286197,660.094361949872,746.86972776685,608.982872284519,362.523950330325,154.86065977747,-118.393981505996,190.256532283722,-71.8625507777255, , , , , , , , , , , , , , , , , , , , , , , , , , , , , , , , , , , , , , , , , , , , , , , , , , , , , , , , , , , , ,
211.123662641967,35.2388912329694,-175.884771408998,64.3661424932205,675.118720660862,761.923475391103,624.65602823007,374.148608954993,162.262520852724,-123.181276937468,193.504217025482,-70.3229400880142, , , , , , , , , , , , , , , , , , , , , , , , , , , , , , , , , , , , , , , , , , , , , , , , , , , , , , , , , , , , ,
216.591553579364,39.6112763581771,-176.980277221187,65.1190788004199,690.442814911684,777.198272128087,640.63680895734,386.032946757247,169.877627061525,-128.10141496877,196.785915400276,-68.684500431505, , , , , , , , , , , , , , , , , , , , , , , , , , , , , , , , , , , , , , , , , , , , , , , , , , , , , , , , , , , , ,
222.219392053127,44.147004784215,-178.072387268912,65.8294488028773,706.03732256463,792.668974608653,656.914146014773,398.164834794815,177.69325028911,-133.183198418671,200.14588966102,-66.9626912423488, , , , , , , , , , , , , , , , , , , , , , , , , , , , , , , , , , , , , , , , , , , , , , , , , , , , , , , , , , , , ,
228.052526110601,48.8515784393845,-179.200947671217,66.4738582675135,721.870590482513,808.311383357766,673.476585526897,410.532002902982,185.695880665439,-138.452052274993,203.626736890909,-65.1746846159164, , , , , , , , , , , , , , , , , , , , , , , , , , , , , , , , , , , , , , , , , , , , , , , , , , , , , , , , , , , , ,
234.131985428208,53.7278113990013,-180.404174029207,67.0306873286343,737.909807164668,824.102979613292,690.313004962185,423.122862548504,193.872196180318,-143.929898413604,207.268079728707,-63.3381813151028, , , , , , , , , , , , , , , , , , , , , , , , , , , , , , , , , , , , , , , , , , , , , , , , , , , , , , , , , , , , ,
240.493808809466,58.7765543625961,-181.71725444687,67.4809772571303,754.122126716228,840.023414544868,707.413215688325,435.927294299286,202.21000912662,-149.635181586031,211.105531628168,-61.4703500421371, , , , , , , , , , , , , , , , , , , , , , , , , , , , , , , , , , , , , , , , , , , , , , , , , , , , , , , , , , , , ,
