-69.6536392768191,-118.011022921315,-48.3573836444953,86.0673203368065,61.1157561876059,-3.2503757946153,-150.996702273567,-302.694316805319,-200.032872162034,93.8323310990665,-10.6481278161619,-83.1842032829049,677,677,647,647,647,649,677,647,649,677,647,649,997,1027,1029,837,711,999,997,967,997,773,949,937,1124,1131,1122,1081,1050,1121,1143,1090,1117,1100,1035,1102,1412,1412,1407,1247,1350,1352,1380,1350,1412,1245,1290,1384,1191,1191,1162,1162,1162,1163,1191,1162,1163,1191,1162,1163,
-69.6536392768191,-118.011022921315,-48.3573836444953,86.0673203368065,61.1157561876059,-3.2503757946153,-150.996702273567,-302.694316805319,-200.032872162034,93.8323310990665,-10.6481278161619,-83.1842032829049,1786,1786,1756,1756,1756,1757,1786,1756,1757,1786,1756,1757,1024,1064,1052,858,951,1022,1046,989,1023,1064,966,976,1156,1150,1146,1190,1139,1139,1161,1121,1153,1191,1101,1120,1485,1483,1481,1525,1436,1460,1484,1449,1486,1522,1403,1454,2300,2300,2271,2271,2271,2271,2300,2271,2271,2300,2271,2271,
-69.6536392768191,-118.011022921315,-48.3573836444953,86.0673203368065,61.1157561876059,-3.2503757946153,-150.996702273567,-302.694316805319,-200.032872162034,93.8323310990665,-10.6481278161619,-83.1842032829049,2908,2908,2878,2878,2878,2878,2908,2878,2878,2908,2878,2878,1096,2074,1096,1026,1034,1068,1096,1034,1096,1096,1002,1036,1191,1190,1190,1226,1161,1162,1190,1159,1190,1228,1118,1162,1537,1539,1545,1608,1493,1519,1546,1501,1534,1608,1445,1512,3435,3435,3404,3404,3404,3405,3435,3404,3405,3435,3404,3405,
-69.6536392768191,-118.011022921315,-48.3573836444953,86.0673203368065,61.1157561876059,-3.2503757946153,-150.996702273567,-302.694316805319,-200.032872162034,93.8323310990665,-10.6481278161619,-83.1842032829049,4052,4052,4022,4022,4022,4022,4052,4022,4022,4052,4022,4022,2106,2141,2076,1818,1852,2117,2106,2108,2077,1978,2089,2077,1220,1216,1213,1247,1194,1196,1220,1184,1217,1245,1136,1187,2495,2505,2486,2323,2459,2460,2489,2491,2492,2316,2523,2509,4590,4590,4559,4559,4559,4560,4590,4559,4560,4590,4559,4560,
-69.6536392768191,-118.011022921315,-48.3573836444953,86.0673203368065,61.1157561876059,-3.2503757946153,-150.996702273567,-302.694316805319,-200.032872162034,93.8323310990665,-10.6481278161619,-83.1842032829049,5210,5210,5179,5179,5179,5180,5210,5179,5180,5210,5179,5180,2138,2205,2133,1863,2068,2133,2135,2164,2138,1998,2132,2113,1253,1256,1259,2159,1221,1246,1304,1214,1234,2169,1177,1229,2585,2584,2553,2606,2548,2565,2569,2592,2570,2584,2603,2584,5749,5749,5719,5719,5719,5720,5749,5719,5720,5749,5719,5720,
-69.6536392768191,-118.011022921315,-48.3573836444953,86.0673203368065,61.1157561876059,-3.2503757946153,-150.996702273567,-302.694316805319,-207.840085360426,93.8323310990665,-10.6481278161619,-83.1842032829049,6344,6344,6314,6314,6314,6316,6344,6314,6316,6344,6314,6316,2163,3196,2175,1917,2143,2176,2205,2207,2176,2019,2162,2176,2233,2240,2207,2267,2159,2229,2230,2236,2203,2262,2236,2239,2639,2641,2616,2685,2600,2626,2633,2642,2618,2685,2670,2643,6859,6859,6829,6829,6829,6831,6859,6829,6831,6859,6829,6831,
-69.6536392768191,-118.011022921315,-48.3573836444953,86.0673203368065,61.1157561876059,-3.2503757946153,-150.996702273567,-302.694316805319,-256.039939286837,93.8323310990665,-10.6481278161619,-83.1842032829049,7434,7434,7404,7404,7404,7406,7434,7404,7406,7434,7404,7406,2205,3250,3262,3100,2974,3230,3292,3230,3230,2109,2207,3198,2265,2259,2225,2303,2191,2247,2247,2267,2239,2299,2283,2257,3643,3643,3655,3643,3613,3613,3611,3645,3648,3643,2719,3645,7930,7930,7900,7900,7900,7901,7930,7900,7901,7930,7900,7901,
-69.6536392768191,-118.011022921315,-48.3573836444953,116.84245495998,61.1157561876059,-3.2503757946153,-150.996702273567,-343.625143228414,-279.125080304239,93.8323310990665,-10.6481278161619,-83.1842032829049,8522,8522,8490,8490,8490,8491,8522,8490,8491,8522,8490,8491,3294,3295,3301,3126,3019,3267,3333,3271,3301,3196,3256,3249,2300,2299,2269,2323,2270,2270,2277,2301,2275,2316,2299,2299,3729,3724,3717,3744,3692,3701,3704,3728,3736,3727,3618,3721,9035,9035,9000,9000,9000,9001,9035,9000,9001,9035,9000,9001,
-69.6536392768191,-118.011022921315,-48.3573836444953,146.667970948051,100.791042476102,-3.2503757946153,-150.996702273567,-405.143940889392,-323.954870519614,93.8323310990665,-10.6481278161619,-83.1842032829049,9767,9767,9591,9591,9591,9731,9767,9591,9731,9767,9591,9731,3302,4244,3329,3263,3041,3297,3359,3329,3329,3271,3302,3297,2329,2326,2293,3294,2303,2305,2309,2328,2303,3301,2316,2325,3793,3782,3773,3807,3743,3764,3770,3781,3786,3807,3733,3779, , , , , , , , , , , , ,
-69.6536392768191,-118.011022921315,-48.3573836444953,191.036628660603,177.631665771384,119.030217421954,-150.996702273567,-442.169830752014,-341.088927334744,93.8323310990665,-10.6481278161619,-83.1842032829049, , , , , , , , , , , , ,3327,4281,4246,4276,4278,4403,4372,4310,4182,3295,3329,4246,2361,2364,2337,3401,2328,2356,2389,2451,2319,3397,2439,2365,4788,4793,4804,4614,4620,4757,4755,4789,4811,4787,3809,4796, , , , , , , , , , , , ,
-69.6536392768191,-118.011022921315,-48.3573836444953,206.586031894278,206.432588740093,161.969548224879,-150.996702273567,-497.838044884484,-347.216286278757,93.8323310990665,-10.6481278161619,-83.1842032829049, , , , , , , , , , , , ,4084,4407,4309,4362,4420,4420,4422,4330,4215,4084,4148,4281,3363,3375,3370,3438,3293,3364,3365,3370,3367,3434,3366,3373,4872,4876,4878,4895,4848,4859,4862,4883,4892,4875,4778,4877, , , , , , , , , , , , ,
-69.6536392768191,-118.011022921315,-48.3573836444953,234.089555329214,250.778446061343,268.205031070492,-150.996702273567,-496.077661569097,-377.215869571678,93.8323310990665,-10.6481278161619,-83.1842032829049, , , , , , , , , , , , ,4220,5561,4409,4439,4441,4473,4471,4409,4409,4279,4163,4409,3400,3394,3388,3459,3403,3382,3383,3401,3403,3451,3433,3390,4941,4938,4936,4983,4857,4921,4927,4938,4943,4983,4863,4938, , , , , , , , , , , , ,
-69.6536392768191,-118.011022921315,-48.3573836444953,236.507416758446,246.128122218113,277.803589100687,-150.996702273567,-536.171182263943,-367.659628046068,93.8323310990665,-10.6481278161619,-83.1842032829049, , , , , , , , , , , , ,4407,5562,5562,5434,5307,5542,5562,5563,5532,4407,4217,5562,3435,3434,3434,4449,3438,3404,3411,3438,3440,4452,3451,3434,5942,5951,5971,5774,5914,5915,5913,5946,5979,5945,4954,5957, , , , , , , , , , , , ,
-69.6536392768191,-118.011022921315,-48.3573836444953,243.796800256859,228.859463986884,302.678334275997,-85.0908486183991,-511.011121365479,-371.820687422963,93.8323310990665,-10.6481278161619,-83.1842032829049, , , , , , , , , , , , ,5550,5629,5598,5483,5330,5580,5582,5582,5584,5498,5540,5631,3464,3460,3456,4556,3464,3440,3443,3463,3467,4553,3470,3458,6044,6043,6038,6056,6008,6017,6020,6043,6052,6043,5915,6042, , , , , , , , , , , , ,
-69.6536392768191,-118.011022921315,-48.3573836444953,215.903697904848,198.598961414065,279.190597459885,-46.6858869118631,-510.998850013697,-352.294795862915,93.8323310990665,-10.6481278161619,-83.1842032829049, , , , , , , , , , , , ,5585,6693,6661,5597,5566,5631,5629,5662,5663,5521,5582,6636,3498,3502,3503,4593,4448,3493,3535,3596,3583,4589,3481,3602,6099,6100,6102,6141,6060,6080,6087,6097,6102,6141,6045,6101, , , , , , , , , , , , ,
-69.6536392768191,-118.011022921315,-48.3573836444953,175.676498979596,155.055256804491,240.130083611235,19.5571085813446,-486.585573225654,-314.584388827199,93.8323310990665,-10.6481278161619,-83.1842032829049, , , , , , , , , , , , ,5661,6697,6668,6506,6410,6650,6664,6666,6668,5565,5613,6668,4519,4531,4525,4614,4558,4519,4520,4525,4522,4606,4521,4530,7056,7071,7083,6852,7182,7026,7047,7049,7083,7047,6094,7076, , , , , , , , , , , , ,
-69.6536392768191,-118.011022921315,-48.3573836444953,126.981782605592,97.9855236191574,185.661293181676,64.2905495647831,-426.774799671693,-296.343391781429,93.8323310990665,-10.6481278161619,-83.1842032829049, , , , , , , , , , , , ,6664,6763,6701,6669,6436,6690,6692,6694,6696,6536,5662,6735,4555,4550,4543,5608,4593,4537,4537,4557,4558,5613,4573,4547,7157,7157,7138,7134,7276,7126,7130,7149,7158,7157,7087,7158, , , , , , , , , , , , ,
-69.6536392768191,-118.011022921315,-48.3573836444953,86.0673203368065,61.1157561876059,115.876564700642,87.8129431308051,-397.674380939797,-238.01923662972,93.8323310990665,-10.6481278161619,-83.1842032829049, , , , , , , , , , , , ,6695,7765,7660,7500,6701,6735,6763,6765,6767,6580,6680,7694,4590,4589,4589,5716,4620,4559,4567,4594,4595,5712,4588,4589,7200,7204,7234,7213,7317,7187,7192,7202,7207,7243,7157,7207, , , , , , , , , , , , ,
-69.6536392768191,-118.011022921315,-48.3573836444953,86.0673203368065,61.1157561876059,30.7653828256842,104.995135887499,-302.694316805319,-200.032872162034,93.8323310990665,-10.6481278161619,-83.1842032829049, , , , , , , , , , , , ,6723,7768,7796,7532,7564,7754,7764,7724,7726,6699,6723,7747,4618,4615,4611,5752,5608,4595,4597,4619,4622,5748,4606,4613,8119,8137,8139,7953,8075,8109,8105,8139,8144,8137,7233,8141, , , , , , , , , , , , ,
-69.6536392768191,-118.011022921315,-48.3573836444953,86.0673203368065,61.1157561876059,-3.2503757946153,114.205096107422,-302.694316805319,-200.032872162034,93.8323310990665,-10.6481278161619,-83.1842032829049, , , , , , , , , , , , ,6763,7789,7823,7759,7763,7763,7821,7765,7768,7578,6765,7793,4643,4646,4658,5774,5718,4649,4695,4752,4757,5766,4759,4654,8220,8220,8227,8237,8185,8195,8202,8222,8230,8220,7301,8221, , , , , , , , , , , , ,
-69.6536392768191,-118.011022921315,-48.3573836444953,86.0673203368065,61.1157561876059,-3.2503757946153,113.717074022112,-302.694316805319,-200.032872162034,93.8323310990665,-10.6481278161619,-83.1842032829049, , , , , , , , , , , , ,7745,8650,8810,8522,7791,7793,8842,7823,7825,7607,7724,8811,5679,5690,5685,6687,5752,5678,5680,5683,5681,6730,5680,5689,8276,8278,8283,8303,8235,8261,8264,8275,8280,8301,8113,8279, , , , , , , , , , , , ,
-69.6536392768191,-118.011022921315,-48.3573836444953,86.0673203368065,61.1157561876059,-3.2503757946153,101.7477567812,-302.694316805319,-200.032872162034,93.8323310990665,-10.6481278161619,-83.1842032829049, , , , , , , , , , , , ,7764,8700,8844,8641,8682,8843,8866,8842,8843,7740,7762,8845,5714,5709,5702,6796,5781,5696,5697,5716,5717,6821,5732,5705,9230,9233,9237,9054,9193,9194,9193,9225,9258,9225,8219,9234, , , , , , , , , , , , ,
-69.6536392768191,-95.1256328122871,-25.4719935354679,45.2423417775976,61.1157561876059,-3.2503757946153,76.5027029761383,-302.694316805319,-200.032872162034,82.3896360445528,-22.0908228706757,-60.2988131738774, , , , , , , , , , , , ,7821,8845,8877,8877,8704,8864,8909,8866,8869,8650,7796,8910,5750,5748,5748,6831,6717,5719,5727,5754,5754,6858,5747,5748,9322,9322,9323,9338,9284,9297,9301,9324,9332,9322,8269,9322, , , , , , , , , , , , ,
-66.6033004272272,-19.4730842240696,47.1302162031578,-52.0530249735601,61.1157561876059,-3.2503757946153,36.2322957007427,-302.694316805319,-200.032872162034,43.0381923256481,-56.8667583151926,13.8285659895442, , , , , , , , , , , , ,8847, , , ,8877,8901, ,8941,8942,8696,7823, ,5778,5774,5770,6852,6828,5754,5757,5778,5781,6875,5765,5773,9377,9383,9393,9421,9341,9360,9366,9377,9382,9421,9226,9386, , , , , , , , , , , , ,
-12.6349140494496,66.4930552446173,79.127969294067,-155.570733337219,-209.214709626826,-3.2503757946153,-20.7037000578497,-302.694316805319,-200.032872162034,-26.9290705975841,-45.8814416717584,72.8105122693422, , , , , , , , , , , , ,8866, , , , , , , , ,8739,8830, ,5805,5807,5812,7805,6862,5806,5853,5914,5918,7794,5909,5809, , , , , , , , , , ,9336, , , , , , , , , , , , , ,
42.443472236284,163.027452093737,120.583979857453,-265.433178078276,-456.892056597904,-3.2503757946153,-95.7643329387274,-302.694316805319,-114.219819364012,-102.735462165011,-39.0702538105846,141.805715975595, , , , , , , , , , , , ,8941, , , , , , , , ,8845,8863, ,6788,6800,6795,7897,6886,6787,6788,6793,6790,7892,6792,6799, , , , , , , , , , ,9361, , , , , , , , , , , , , ,
97.9644027109829,270.092354185702,172.127951474719,-381.788027910878,-659.011665785668,-220.606781554005,-150.996702273567,-302.694316805319,34.8808148549635,-184.028378448343,-37.0817743818682,221.11015283021, , , , , , , , , , , , , , , , , , , , , , ,8897, ,6824,6819,6813,7933,7814,6805,6804,6825,6827,7929,6825,6817, , , , , , , , , , , , , , , , , , , , , , , , ,
153.293268685949,387.321116360638,234.027847674688,-504.763870791463,-933.196145144148,-455.246597523183,-150.996702273567,-212.636939556916,192.628383380023,-270.307192523294,-40.3672894943696,310.674482017663, , , , , , , , , , , , , , , , , , , , , , ,8941, ,6858,6858,6858,7953,7822,6830,6837,6861,6863,7946,6841,6858, , , , , , , , , , , , , , , , , , , , , , , , ,
207.849683868274,513.984169622813,306.134485754539,-634.417403803978,-1247.42470674906,-786.797617858763,-150.996702273567,-32.3662554192509,358.564468729657,-360.916926745544,-49.1424009431324,410.059327688676, , , , , , , , , , , , , , , , , , , , , , , , ,6887,6885,6881,8889,7899,6863,6868,6886,6890,8896,6857,6884, , , , , , , , , , , , , , , , , , , , , , , , ,
261.121646898415,648.960148928598,387.838502030183,-770.674591232112,-1488.981194034,-1146.22766857399,-286.219476669863,147.378778045229,532.170607546093,-455.040897913507,-63.3584275658841,518.399325479391, , , , , , , , , , , , , , , , , , , , , , , , ,6978,6919,6925,8997,7933,6917,6952,7010,7006,8992,6874,6918, , , , , , , , , , , , , , , , , , , , , , , , ,
312.67162612954,790.715689840567,478.044063711027,-913.269394725047,-1763.67140971198,-1456.20927919252,-482.731448304404,325.891821515853,712.847021932,-551.693657985054,-82.6862187907436,634.379876775797, , , , , , , , , , , , , , , , , , , , , , , , ,7861,7870,7864,9033,7959,7858,7859,7866,7862,9029,6890,7869, , , , , , , , , , , , , , , , , , , , , , , , ,
362.134391632177,937.297863054055,575.163471421879,-1061.68466562804,-2121.85686322464,-1751.32700475455,-677.579502902042,502.677725548678,899.884021928279,-649.716127343116,-106.514539894851,756.230667237967, , , , , , , , , , , , , , , , , , , , , , , , ,7895,7889,7886,9054,8889,7876,7876,7896,7898,9046,7004,7888, , , , , , , , , , , , , , , , , , , , , , , , ,
409.207263466481,1086.34313509595,677.135871629465,-1215.10033968465,-2397.40196459168,-2114.17887428622,-899.845282818781,677.411844378262,1092.42775040137,-747.775199281213,-133.964304081492,881.739503362705, , , , , , , , , , , , , , , , , , , , , , , , ,7930,7929,7929, ,8999,7900,7907,7932,7934, ,7863,7929, , , , , , , , , , , , , , , , , , , , , , , , ,
453.634282823199,1235.10607424492,781.471791421721,-1372.35406519904,-2668.34735494288,-2505.69139973502,-1153.37533740227,849.876110120593,1289.4430037935,-844.37017853406,-163.918754299261,1008.28893283332, , , , , , , , , , , , , , , , , , , , , , , , ,7959,7956,7952, ,9033,7935,7938,7958,7962, ,7928,7954, , , , , , , , , , , , , , , , , , , , , , , , ,
495.186454473435,1387.87205188623,892.685597412791,-1531.91883503948,-2942.88171497846,-2857.16773720853,-1415.5255441532,1109.68240594959,1489.67662625285,-941.529253179831,-198.749571469678,1140.27882464951, , , , , , , , , , , , , , , , , , , , , , , , ,7991,7995,7997, ,9061,7990,8045,8090,8078, ,7946,7995, , , , , , , , , , , , , , , , , , , , , , , , ,
533.640561409043,1562.18293056004,1028.542369151,-1691.90120675752,-3211.29358985434,-3176.77030418403,-1683.80225949371,1455.25942542506,1691.62538052572,-1047.91174598454,-247.450903870977,1295.36264985552, , , , , , , , , , , , , , , , , , , , , , , , ,8959,8971,8965, , ,8959,8960,8965,8962, ,8067,8969, , , , , , , , , , , , , , , , , , , , , , , , ,
598.329690847253,1747.47333743783,1149.14364659058,-1850.06244906629,-3537.37441678539,-3508.28799028438,-1955.32106805215,1666.69262293613,1893.51230631501,-1172.90151414254,-275.406977871664,1448.30849201421, , , , , , , , , , , , , , , , , , , , , , , , ,8995,8988,8983, , ,8977,8978,8997,8998, ,8078,8985, , , , , , , , , , , , , , , , , , , , , , , , ,
649.408981143726,1910.85900725778,1261.45002611405,-2003.86353413886,-3788.19584091011,-3817.63283787635,-2226.89630229331,1955.02497327358,2093.27539905951,-1280.13399420075,-306.020522485162,1586.15451668591, , , , , , , , , , , , , , , , , , , , , , , , ,9031,9029,9029, , ,9000,9007,9034,9035, ,8961,9029, , , , , , , , , , , , , , , , , , , , , , , , ,
726.765411007913,2043.11472114574,1316.34931013783,-2150.53329561093,-4036.30201890911,-4138.02188056514,-2495.14269380816,2281.40659839314,2288.57185707324,-1384.94006607683,-294.791949564958,1679.73201564179, , , , , , , , , , , , , , , , , , , , , , , , ,9059,9055,9051, , ,9035,9038,9059,9063, ,9028,9053, , , , , , , , , , , , , , , , , , , , , , , , ,
752.240410434241,2127.03553808747,1374.79512765323,-2287.15729142601,-4287.03644974732,-4483.00942852255,-2746.09944650048,2434.06638057834,2476.80004630822,-1439.63797426086,-311.277358609494,1750.91533287035, , , , , , , , , , , , , , , , , , , , , , , , ,9109,9093,9092, , ,9087,9127,9191,9179, ,9046,9092, , , , , , , , , , , , , , , , , , , , , , , , ,
815.501246896588,2216.37548504953,1400.87423815294,-2410.78305622647,-4481.31890204528,-4763.37546081395,-2986.5994218033,2736.28930306317,2655.1398384626,-1515.93836597306,-292.686495628175,1808.62486160123, , , , , , , , , , , , , , , , , , , , , , , , , , , , , , , , , , ,9065, , , , , , , , , , , , , , , , , , , , , , , , , ,
852.401604135336,2275.31611815592,1422.91451402058,-2518.53573720271,-4669.36257264898,-4998.94966501148,-3215.33463998309,2986.69169989862,2820.61042667114,-1563.85886114563,-285.256454942623,1849.11531608825, , , , , , , , , , , , , , , , , , , , , , , , , , , , , , , , , , ,9074, , , , , , , , , , , , , , , , , , , , , , , , , ,
880.32654072419,2303.40876192112,1423.08222119693,-2607.73688094579,-4807.65792020292,-5242.86678398744,-3427.26118937969,3141.16338288592,3024.3722819469,-1591.86765132266,-271.377840236371,1863.24549155903, , , , , , , , , , , , , , , , , , , , , , , , , , , , , , , , , , , , , , , , , , , , , , , , , , , , , , , , , , , , ,
921.72273205359,2300.9544119814,1379.23167992781,-2676.01861727449,-4939.11120447365,-5439.30375578211,-3625.02248089641,3390.46514528045,3241.68122524281,-1611.3385720175,-228.754473937111,1840.09304595461, , , , , , , , , , , , , , , , , , , , , , , , , , , , , , , , , , , , , , , , , , , , , , , , , , , , , , , , , , , , ,
921.543619369567,2269.04524241184,1347.50162304227,-2771.7363657063,-5014.98476589297,-5578.83722882064,-3796.94125812251,3540.76760549431,3394.04694138174,-1595.2944308907,-212.979001836351,1808.27343272705, , , , , , , , , , , , , , , , , , , , , , , , , , , , , , , , , , , , , , , , , , , , , , , , , , , , , , , , , , , , ,
941.554321425759,2193.64495772165,1252.09063629589,-2809.32423546416,-5050.89290263334,-5709.97111635953,-3950.60815570697,3668.17929428641,3570.6009685795,-1567.5996395737,-155.268157435066,1722.86779700877, , , , , , , , , , , , , , , , , , , , , , , , , , , , , , , , , , , , , , , , , , , , , , , , , , , , , , , , , , , , ,
950.391225570455,2097.93106592748,1147.53984035702,-2873.60210697295,-5050.38591614529,-5807.7303437952,-4074.60919395599,3713.79819281147,3655.15114326048,-1524.16114574897,-98.5743073932845,1622.73545314225, , , , , , , , , , , , , , , , , , , , , , , , , , , , , , , , , , , , , , , , , , , , , , , , , , , , , , , , , , , , ,
929.291562658726,1989.01792414331,1059.72636148459,-2881.55299008508,-5013.54644674581,-5832.74960483431,-4172.93326167137,3716.81405591827,3766.84366515962,-1459.15474340102,-65.2173994129312,1524.37214281395, , , , , , , , , , , , , , , , , , , , , , , , , , , , , , , , , , , , , , , , , , , , , , , , , , , , , , , , , , , , ,
897.870958172831,1861.41222416932,963.541265996484,-2867.57656608497,-4941.19768625588,-5829.87109346702,-4248.73745184421,3687.84813715459,3789.15843023214,-1379.64159117107,-32.8351539118265,1412.4767450829, , , , , , , , , , , , , , , , , , , , , , , , , , , , , , , , , , , , , , , , , , , , , , , , , , , , , , , , , , , , ,
858.310122524396,1691.91364473248,833.603522208085,-2790.46926322141,-4834.87151867612,-5817.50227794344,-4294.77228484403,3624.72150619611,3816.47328525705,-1275.11188362844,12.353300158155,1262.75858347028, , , , , , , , , , , , , , , , , , , , , , , , , , , , , , , , , , , , , , , , , , , , , , , , , , , , , , , , , , , , ,
811.765374634213,1501.85707121873,690.091696584521,-2738.3397334652,-4696.75493631887,-5764.17731417398,-4322.19825589814,3525.95857032383,3772.68800052612,-1156.81122292647,60.836839024846,1095.97438390163, , , , , , , , , , , , , , , , , , , , , , , , , , , , , , , , , , , , , , , , , , , , , , , , , , , , , , , , , , , , ,
759.023740518498,1301.89469143289,542.870950914393,-2619.34416169561,-4529.61823833351,-5645.90505521591,-4323.52042148756,3390.92886203576,3673.10413857674,-1030.4592159757,108.076394802052,922.382821173643, , , , , , , , , , , , , , , , , , , , , , , , , , , , , , , , , , , , , , , , , , , , , , , , , , , , , , , , , , , , ,
700.061899552703,1096.18348472225,396.121585169551,-2492.42181449333,-4336.72857696593,-5494.87503731228,-4295.67395833315,3219.96247122207,3541.2944705187,-898.122692137479,151.970157191576,746.152534945902, , , , , , , , , , , , , , , , , , , , , , , , , , , , , , , , , , , , , , , , , , , , , , , , , , , , , , , , , , , , ,
636.389299868305,889.21253556915,252.823235700846,-2372.76991970795,-4121.75205157668,-5344.04570804971,-4250.01626211106,3014.43061036401,3383.25592007753,-762.800917718728,191.783032083729,571.017885634998, , , , , , , , , , , , , , , , , , , , , , , , , , , , , , , , , , , , , , , , , , , , , , , , , , , , , , , , , , , , ,
567.857831007245,684.782909845972,116.925078838728,-2201.34850327863,-3888.64699950317,-5149.12712415168,-4189.24343867293,2776.78393195356,3194.85498759861,-626.320370426609,225.466376084258,400.85399434235, , , , , , , , , , , , , , , , , , , , , , , , , , , , , , , , , , , , , , , , , , , , , , , , , , , , , , , , , , , , ,
496.638437046287,486.958146248094,-9.68029079819344,-2019.87202529429,-3641.55071401851,-4929.75111549454,-4105.32843782818,2510.54305272068,2987.08019712482,-491.798291647191,253.15936392224,238.63892772495, , , , , , , , , , , , , , , , , , , , , , , , , , , , , , , , , , , , , , , , , , , , , , , , , , , , , , , , , , , , ,
422.524921749333,298.761490368194,-123.763431381139,-1831.53547340758,-3384.6618112319,-4715.61022978144,-4001.80670223595,2220.23811948002,2756.43975116457,-360.643206058764,273.144176565236,87.4990294935277, , , , , , , , , , , , , , , , , , , , , , , , , , , , , , , , , , , , , , , , , , , , , , , , , , , , , , , , , , , , ,
348.005896724266,123.326119401268,-224.679777322998,-1639.53410787974,-3122.12100115518,-4493.64076544229,-3889.22053424697,1911.29694008718,2507.77243520445,-235.666008062767,286.342837023632,-50.6768289608649, , , , , , , , , , , , , , , , , , , , , , , , , , , , , , , , , , , , , , , , , , , , , , , , , , , , , , , , , , , , ,
272.947263834767,-37.4477301459827,-310.39499398075,-1446.97523638516,-2857.89400883516,-4262.70312856812,-3768.52372281098,1589.88399678309,2251.78716113739,-117.749766844393,291.671128907759,-173.921362063366, , , , , , , , , , , , , , , , , , , , , , , , , , , , , , , , , , , , , , , , , , , , , , , , , , , , , , , , , , , , ,
199.815743892015,-181.829592233811,-381.645336125826,-1256.79328181066,-2595.66154279175,-4027.11303542946,-3638.1208522442,1262.69544805979,1992.07188834175,-8.99307582910204,290.730540008921,-281.737464179819, , , , , , , , , , , , , , , , , , , , , , , , , , , , , , , , , , , , , , , , , , , , , , , , , , , , , , , , , , , , ,
128.599062072394,-308.171094274592,-436.770156346986,-1071.67140088332,-2338.72209852139,-3790.75514909215,-3494.93168735538,936.717950087939,1725.23215860279,89.7860161010986,282.68460920969,-372.470625310789, , , , , , , , , , , , , , , , , , , , , , , , , , , , , , , , , , , , , , , , , , , , , , , , , , , , , , , , , , , , ,
61.4046888125397,-416.192672021765,-477.597360834305,-893.973265666341,-2090.02754665126,-3551.79094484733,-3344.90662946174,618.961720846016,1469.04574808872,177.393991604613,269.501024823422,-446.895016428035, , , , , , , , , , , , , , , , , , , , , , , , , , , , , , , , , , , , , , , , , , , , , , , , , , , , , , , , , , , , ,
-1.61613120343011,-505.620747149235,-504.004615945805,-725.688482798442,-1851.85337581502,-3311.6443427958,-3196.32874902013,316.18063623882,1219.45661104906,253.618439176332,251.194242371187,-504.81268154752, , , , , , , , , , , , , , , , , , , , , , , , , , , , , , , , , , , , , , , , , , , , , , , , , , , , , , , , , , , , ,
-59.021867958491,-577.137432641146,-518.115564682655,-568.394489543322,-1626.02426888653,-3085.14515604855,-3046.51952848546,34.5941694073965,978.995299567002,318.079650299818,229.546848362082,-547.6264986619, , , , , , , , , , , , , , , , , , , , , , , , , , , , , , , , , , , , , , , , , , , , , , , , , , , , , , , , , , , , ,
-106.582039286295,-631.07432365014,-524.492284363845,-423.236756336736,-1413.83210035699,-2872.10683419491,-2895.18975406383,-220.372560244872,757.600263020314,368.828181468217,208.955122538775,-577.783304006992, , , , , , , , , , , , , , , , , , , , , , , , , , , , , , , , , , , , , , , , , , , , , , , , , , , , , , , , , , , , ,
-152.016818579202,-668.821589062387,-516.804770483185,-290.927924636659,-1215.71214766049,-2660.66974111968,-2743.37454672275,-444.313913073634,554.240528758394,410.419203820794,182.393975951992,-592.813179772786, , , , , , , , , , , , , , , , , , , , , , , , , , , , , , , , , , , , , , , , , , , , , , , , , , , , , , , , , , , , ,
-190.746380253912,-691.69197226483,-500.945592010918,-168.772992603578,-1032.65171249581,-2462.90743298057,-2587.79694671216,-634.018432778832,373.216358115618,441.219176259371,155.099605878503,-596.318782137874, , , , , , , , , , , , , , , , , , , , , , , , , , , , , , , , , , , , , , , , , , , , , , , , , , , , , , , , , , , , ,
-222.407597151677,-701.504353985434,-479.096756833757,-59.8423072559441,-863.161038356449,-2283.94328974983,-2431.91317760233,-787.580526162555,211.010939342667,461.955975568555,128.34457984104,-590.300555409595, , , , , , , , , , , , , , , , , , , , , , , , , , , , , , , , , , , , , , , , , , , , , , , , , , , , , , , , , , , , ,
-246.998524333877,-699.668835658546,-452.670311324669,36.2752097163261,-708.661072305023,-2114.80519260499,-2281.91096114542,-904.441170927625,72.7443704444335,473.333679996211,102.835893495396,-576.169573491608, , , , , , , , , , , , , , , , , , , , , , , , , , , , , , , , , , , , , , , , , , , , , , , , , , , , , , , , , , , , ,
-264.857075149736,-688.175975253445,-423.318900103708,120.274060947061,-566.762328458166,-1955.21612174822,-2135.64792401082,-985.355361087741,-39.899320433216,476.51652520159,79.2309124769859,-555.747437678576, , , , , , , , , , , , , , , , , , , , , , , , , , , , , , , , , , , , , , , , , , , , , , , , , , , , , , , , , , , , ,
-276.4292356,-668.862724824778,-392.433489224778,193.063665823091,-437.729745336749,-1804.76926993559,-1992.34573007294,-1032.28990767611,-129.502005708536,472.645980212388,58.0021268123887,-530.648107024777, , , , , , , , , , , , , , , , , , , , , , , , , , , , , , , , , , , , , , , , , , , , , , , , , , , , , , , , , , , , ,
-282.259562003131,-643.525782138276,-361.266220135145,255.695687647864,-320.828578170961,-1663.00837726893,-1852.70829076354,-1048.26071116902,-199.358118686447,462.892672070703,39.503329066007,-502.39600113671, , , , , , , , , , , , , , , , , , , , , , , , , , , , , , , , , , , , , , , , , , , , , , , , , , , , , , , , , , , , ,
-282.997167266849,-613.872763503422,-330.875596236573,309.291315236932,-213.635709925735,-1529.49108442707,-1717.40819609474,-1037.12311736743,-248.232896853967,448.434965385136,23.9392144848617,-472.374179869998, , , , , , , , , , , , , , , , , , , , , , , , , , , , , , , , , , , , , , , , , , , , , , , , , , , , , , , , , , , , ,
-279.362161903663,-581.480440462947,-302.118278559284,354.972574110881,-117.443940363441,-1403.83314950782,-1580.50252405869,-1003.3319202291,-279.123891417454,430.421301183305,11.3780583278101,-441.799359511115, , , , , , , , , , , , , , , , , , , , , , , , , , , , , , , , , , , , , , , , , , , , , , , , , , , , , , , , , , , , ,
-272.111364474281,-547.760775864085,-275.649411389805,393.801473771176,-30.5881618406839,-1285.73358409057,-1449.04189776078,-956.718806827092,-296.872395346605,409.936070169183,1.76902345776185,-411.705093626945, , , , , , , , , , , , , , , , , , , , , , , , , , , , , , , , , , , , , , , , , , , , , , , , , , , , , , , , , , , , ,
-262.005415988859,-513.935339639273,-251.929923650414,426.730273848942,48.3025389560832,-1174.98248609237,-1330.38499080505,-897.16301592231,-303.532916829382,387.970377814066,-5.03774616922255,-382.932631644844, , , , , , , , , , , , , , , , , , , , , , , , , , , , , , , , , , , , , , , , , , , , , , , , , , , , , , , , , , , , ,
-249.779167085613,-481.018450738523,-231.23928365291,454.565357920229,79.2424731122972,-1071.45445402105,-1212.84824211014,-827.658103959833,-298.697638392009,365.398808912068,-9.2699417163519,-356.128867195716, , , , , , , , , , , , , , , , , , , , , , , , , , , , , , , , , , , , , , , , , , , , , , , , , , , , , , , , , , , , ,
-236.116805112939,-449.809111169463,-213.692306056524,477.946165586161,143.000508826099,-967.313029279692,-1101.38284988024,-751.133296381195,-286.807179738045,342.9629581412,-11.2122495282075,-331.750708612993, , , , , , , , , , , , , , , , , , , , , , , , , , , , , , , , , , , , , , , , , , , , , , , , , , , , , , , , , , , , ,
-221.632702093728,-420.891508099809,-199.25880600608,497.339435741675,199.442481861646,-868.204769823046,-1003.71911317688,-674.810841377076,-270.525166138764,321.262105096768,-11.1869480438243,-310.075157052944, , , , , , , , , , , , , , , , , , , , , , , , , , , , , , , , , , , , , , , , , , , , , , , , , , , , , , , , , , , , ,
-206.858438583356,-394.643568069489,-187.785129486133,513.047797589491,248.881899463853,-776.21403168097,-915.8237628426,-603.766828971744,-251.932240939857,300.751003326422,-9.53665454861192,-291.214348777811, , , , , , , , , , , , , , , , , , , , , , , , , , , , , , , , , , , , , , , , , , , , , , , , , , , , , , , , , , , , ,
-192.235943452674,-371.252747429665,-179.016803976992,525.230685605961,291.57214036466,-691.368791608962,-836.652373071934,-542.128897907059,-232.78799926342,281.744345441169,-6.60956973784119,-275.134775703328, , , , , , , , , , , , , , , , , , , , , , , , , , , , , , , , , , , , , , , , , , , , , , , , , , , , , , , , , , , , ,
-178.116240898031,-350.737947504404,-172.621706606373,533.934797788317,327.726407976799,-613.661011248919,-758.378349446007,-488.534593186203,-214.507884140514,264.427094201217,-2.74726714582892,-261.679827055388, , , , , , , , , , , , , , , , , , , , , , , , , , , , , , , , , , , , , , , , , , , , , , , , , , , , , , , , , , , , ,
-164.762960530274,-332.976179449283,-168.213218919009,537.238980408445,357.537679770327,-543.024020769547,-687.637898755791,-444.204154058589,-198.159808450455,248.869569989778,1.72512919436735,-250.594699184146, , , , , , , , , , , , , , , , , , , , , , , , , , , , , , , , , , , , , , , , , , , , , , , , , , , , , , , , , , , , ,
-152.359565286664,-317.732395501182,-165.372830214517,536.985626519263,381.197350400106,-479.316830103577,-632.666638452968,-409.714068813813,-184.477976870422,235.045980393923,6.50663246392656,-241.55261285785, , , , , , , , , , , , , , , , , , , , , , , , , , , , , , , , , , , , , , , , , , , , , , , , , , , , , , , , , , , , ,
-141.019173724508,-304.690773321035,-163.671599596527,533.125420409211,398.911617074317,-422.316041033149,-586.207660682174,-385.070823119459,-173.890740341248,222.854973522771,11.3262129360097,-234.181186458781, , , , , , , , , , , , , , , , , , , , , , , , , , , , , , , , , , , , , , , , , , , , , , , , , , , , , , , , , , , , ,
-130.795867524352,-293.4857212993,-162.689853774948,525.649924739843,409.968067122873,-371.715269351008,-538.083915100166,-369.80273849968,-166.558930514562,212.140794411826,15.9469931252981,-228.087787537124, , , , , , , , , , , , , , , , , , , , , , , , , , , , , , , , , , , , , , , , , , , , , , , , , , , , , , , , , , , , ,
-121.696453670214,-283.730988814244,-162.03453514403,514.620389465309,414.372133304562,-327.131335067305,-496.422122598456,-363.062251760292,-162.420999651272,202.713721242229,20.1690407369081,-222.882761979137, , , , , , , , , , , , , , , , , , , , , , , , , , , , , , , , , , , , , , , , , , , , , , , , , , , , , , , , , , , , ,
-113.691784682987,-275.045510220029,-161.353725537043,500.188147067806,415.587214300548,-288.115962802007,-460.559663410242,-363.731515141231,-161.241409900405,194.368647451508,23.8309704270278,-218.199617878536, , , , , , , , , , , , , , , , , , , , , , , , , , , , , , , , , , , , , , , , , , , , , , , , , , , , , , , , , , , , ,
-106.726936527594,-267.074957301366,-160.348020773772,482.605478816979,411.473247379131,-254.171386195937,-429.803822477005,-370.525076485897,-162.659043314101,186.90094691448,26.8105421230886,-213.711489037569, , , , , , , , , , , , , , , , , , , , , , , , , , , , , , , , , , , , , , , , , , , , , , , , , , , , , , , , , , , , ,
-100.729796697084,-259.508384468589,-158.778587771505,462.226829444414,400.265055217158,-224.768098433127,-403.460879413381,-382.084519251194,-166.232908772472,180.119090582836,29.0243955372106,-209.143486120047, , , , , , , , , , , , , , , , , , , , , , , , , , , , , , , , , , , , , , , , , , , , , , , , , , , , , , , , , , , , ,
-95.6178828904207,-252.08976815131,-156.471885260889,439.501145725304,385.203909380972,-199.363034819157,-380.862395219173,-397.061200885737,-171.483056191698,173.853825520865,30.4270011852343,-204.2808267061, , , , , , , , , , , , , , , , , , , , , , , , , , , , , , , , , , , , , , , , , , , , , , , , , , , , , , , , , , , , ,
-91.3034380739176,-244.624599339607,-153.321161265689,414.95678448886,366.887747578159,-177.416685618853,-361.387241194665,-414.184525452649,-177.925296012992,167.964018706762,31.0088615958858,-198.972880302648, , , , , , , , , , , , , , , , , , , , , , , , , , , , , , , , , , , , , , , , , , , , , , , , , , , , , , , , , , , , ,
-87.6969995009788,-236.981944591009,-149.28494509003,389.180813524458,345.947756461013,-158.407979617046,-344.478314544748,-432.314431615282,-185.098978171157,162.339472045993,30.7939727945253,-193.133444840519, , , , , , , , , , , , , , , , , , , , , , , , , , , , , , , , , , , , , , , , , , , , , , , , , , , , , , , , , , , , ,
-84.709724796824,-229.092553204426,-144.382828407602,362.794633931534,323.036640817112,-145.43086305411,-329.653337204098,-450.477897443391,-192.587650460516,156.901139000625,29.8365518053889,-186.737690806014, , , , , , , , , , , , , , , , , , , , , , , , , , , , , , , , , , , , , , , , , , , , , , , , , , , , , , , , , , , , ,
-82.2547970115739,-220.943689664214,-138.68889265264,336.42776297743,298.815957851533,-135.057658905571,-316.509614622904,-467.890210652369,-200.032872162034,151.599243337894,28.2170478205329,-179.816291158427, , , , , , , , , , , , , , , , , , , , , , , , , , , , , , , , , , , , , , , , , , , , , , , , , , , , , , , , , , , , ,
-80.2482318440106,-212.571432546159,-132.323200702148,310.691429580965,273.942481085981,-131.972223334165,-304.723107484159,-483.962499780519,-207.141807788472,146.409832195084,26.0374844290687,-172.447316624153, , , , , , , , , , , , , , , , , , , , , , , , , , , , , , , , , , , , , , , , , , , , , , , , , , , , , , , , , , , , ,
-78.6093787541144,-204.051204433498,-125.441825679383,286.153431649777,249.053492729801,-130.142751618927,-294.042594774191,-495.151192367347,-213.689470639581,141.330291593806,23.4162234626344,-164.74651505644, , , , , , , , , , , , , , , , , , , , , , , , , , , , , , , , , , , , , , , , , , , , , , , , , , , , , , , , , , , , ,
-77.261357299172,-195.487278962273,-118.225921663101,263.315531019716,224.751049154717,-129.211036309679,-284.280024451841,-504.377927693355,-219.51662816497,136.374318130722,20.4822821819645,-156.856600312687, , , , , , , , , , , , , , , , , , , , , , , , , , , , , , , , , , , , , , , , , , , , , , , , , , , , , , , , , , , , ,
-76.1316181321882,-187.00195914613,-110.870341013942,242.594518104315,201.585600673241,-128.860444120627,-275.298315729836,-511.578058912737,-224.524431406851,131.566788639159,17.3693614408766,-148.936150080036, , , , , , , , , , , , , , , , , , , , , , , , , , , , , , , , , , , , , , , , , , , , , , , , , , , , , , , , , , , , ,
-75.1527654302302,-178.725051008843,-103.572285578613,224.30792171308,180.0397726736,-128.8156465486,-266.997893349864,-516.818351067255,-228.666807404826,126.938908219536,14.2097600741912,-141.148668293728, , , , , , , , , , , , , , , , , , , , , , , , , , , , , , , , , , , , , , , , , , , , , , , , , , , , , , , , , , , , ,
-74.263705579464,-170.784178172697,-96.5204725932327,208.665109756594,160.51347559263,-128.841463785897,-259.30313973973,-520.267570255188,-231.941573591367,122.52394187608,11.1283835068843,-133.652325382965, , , , , , , , , , , , , , , , , , , , , , , , , , , , , , , , , , , , , , , , , , , , , , , , , , , , , , , , , , , , ,
-73.411085705186,-163.296396382621,-89.8853106774349,195.764196419979,140.781367326371,-128.741093824186,-260.973985853138,-522.166804353422,-234.381111693103,118.353741043903,8.23711248612437,-126.590853530028, , , , , , , , , , , , , , , , , , , , , , , , , , , , , , , , , , , , , , , , , , , , , , , , , , , , , , , , , , , , ,
-72.5508775936832,-156.361467246371,-83.8105896526881,185.594773092205,125.948896139341,-128.353900631575,-261.858072844263,-522.801202841155,-236.043290163633,114.456172420027,5.62985602950238,-120.08602844953, , , , , , , , , , , , , , , , , , , , , , , , , , , , , , , , , , , , , , , , , , , , , , , , , , , , , , , , , , , , ,
-71.6498881689722,-150.057033917984,-78.4071457490118,178.046076156269,111.468480602418,-127.552898690694,-256.798283275443,-522.474409678131,-237.003158721362,110.853461043478,3.37862879001972,-114.232089833498, , , , , , , , , , , , , , , , , , , , , , , , , , , , , , , , , , , , , , , , , , , , , , , , , , , , , , , , , , , , ,
-70.6869586287233,-144.435807430481,-73.7488488017576,172.91984268496,102.025618662822,-123.796272908665,-259.415470117615,-521.486564623124,-237.345761874679,107.561383029602,1.53094508651708,-109.092328116119, , , , , , , , , , , , , , , , , , , , , , , , , , , , , , , , , , , , , , , , , , , , , , , , , , , , , , , , , , , , ,
-69.6536392768191,-139.524725321942,-69.8710860451226,169.946812350617,95.0871325187462,-115.592563251866,-261.914516085146,-520.116385030571,-237.160244153187,104.58918229938,0.108723384151686,-104.697905683532, , , , , , , , , , , , , , , , , , , , , , , , , , , , , , , , , , , , , , , , , , , , , , , , , , , , , , , , , , , , ,
-68.5541738428396,-135.325895185311,-66.7717213424711,168.805634510409,90.4605624580178,-106.893295371201,-264.071613678589,-518.607524731534,-236.535271772372,101.940034514075,-0.891226250184333,-101.048808263891, , , , , , , , , , , , , , , , , , , , , , , , , , , , , , , , , , , , , , , , , , , , , , , , , , , , , , , , , , , , ,
-67.4046881529929,-131.819001658736,-64.4143135057427,169.142855016844,87.8839737108532,-104.796769848685,-265.6881103159,-517.159146651411,-235.555690058987,99.611844905864,-1.4951873236252,-98.1166575822391, , , , , , , , , , , , , , , , , , , , , , , , , , , , , , , , , , , , , , , , , , , , , , , , , , , , , , , , , , , , ,
-66.2315581265592,-128.964757860222,-62.7331997336624,170.592691640679,87.0442911400465,-94.9037561542513,-261.360761719342,-515.920442009761,-234.300271977836,97.5981579933902,-1.7491791964485,-95.848978796942, , , , , , , , , , , , , , , , , , , , , , , , , , , , , , , , , , , , , , , , , , , , , , , , , , , , , , , , , , , , ,
-65.0690312715643,-126.708946035224,-61.6399147636598,172.795443214737,87.5967607765259,-84.9830852448001,-259.748960285028,-514.988679240676,-232.840379772616,95.888988653394,-1.71455825395236,-94.1744303994419, , , , , , , , , , , , , , , , , , , , , , , , , , , , , , , , , , , , , , , , , , , , , , , , , , , , , , , , , , , , ,
-63.9562818809567,-124.98663080575,-61.0303489247932,175.413589459018,89.1842495874722,-75.0812202942615,-254.221947301231,-514.41027214487,-231.239349617389,94.4714563433531,-1.46296647808185,-93.0084898652715, , , , , , , , , , , , , , , , , , , , , , , , , , , , , , , , , , , , , , , , , , , , , , , , , , , , , , , , , , , , ,
-62.9341673143042,-123.726224802274,-60.79205748797,178.144898024157,91.4552620259092,-65.250228695879,-253.544030217716,-514.184322089395,-229.552413941004,93.330196058289,-1.07105491316719,-92.2591411451221, , , , , , , , , , , , , , , , , , , , , , , , , , , , , , , , , , , , , , , , , , , , , , , , , , , , , , , , , , , , ,
-62.0419896993944,-122.853198248275,-60.8112085488805,180.732134687373,94.0797798413738,-55.5461248803951,-251.880571605831,-514.268105220223,-227.82699607628,92.4475939738344,-0.615390575256983,-91.8322033985777, , , , , , , , , , , , , , , , , , , , , , , , , , , , , , , , , , , , , , , , , , , , , , , , , , , , , , , , , , , , ,
-61.3145412625213,-122.2933149611,-60.9787736985788,182.969246609282,96.7622887333418,-46.0273616938493,-244.155500222236,-514.584018983017,-226.103242126845,91.8039281118105,-0.167883781971343,-91.6360443298395, , , , , , , , , , , , , , , , , , , , , , , , , , , , , , , , , , , , , , , , , , , , , , , , , , , , , , , , , , , , ,
-60.7796434963947,-121.975337512315,-61.1956940159203,184.704136025721,99.2516123037858,-36.7533970672989,-236.004776916469,-515.027544830008,-224.414685393358,91.3774905043546,0.208025259762733,-91.5855157641177, , , , , , , , , , , , , , , , , , , , , , , , , , , , , , , , , , , , , , , , , , , , , , , , , , , , , , , , , , , , ,
-60.4563184596622,-121.833183851215,-61.3768653915528,185.838344856953,101.347406462159,-27.7832857773189,-227.508230900914,-515.475810928075,-222.788961571243,91.1447511554384,0.460273465945248,-91.6050246213839, , , , , , , , , , , , , , , , , , , , , , , , , , , , , , , , , , , , , , , , , , , , , , , , , , , , , , , , , , , , ,
-60.3536815175025,-121.807549173622,-61.453867656119,186.324117149148,102.903366742069,-19.1742585152837,-218.779102896611,-515.796353902005,-221.248509891034,91.0806153455618,0.550093069308216,-91.6307084148703, , , , , , , , , , , , , , , , , , , , , , , , , , , , , , , , , , , , , , , , , , , , , , , , , , , , , , , , , , , , ,
-60.5115946121954,-121.847033011456,-61.3354383992608,186.159391161896,103.827370284968,-10.9802532472128,-209.95491686547,-515.85569553677,-219.811214934925,91.1793138118256,0.41192189353262,-91.5912357053585, , , , , , , , , , , , , , , , , , , , , , , , , , , , , , , , , , , , , , , , , , , , , , , , , , , , , , , , , , , , ,
-60.9143259506934,-121.908821775699,-60.9944958250054,185.381294859385,104.078911246038,-3.2503757946153,-201.185809253589,-515.527379692392,-218.490972613098,91.4115738631959,0.0400849371558802,-91.4516588003521, , , , , , , , , , , , , , , , , , , , , , , , , , , , , , , , , , , , , , , , , , , , , , , , , , , , , , , , , , , , ,
-61.5083806943849,-121.958961595342,-60.4505809009565,184.058681248736,103.66427765539,2.03878762533879,-192.621472901479,-514.699157898401,-217.298198039741,91.7336711448629,-0.528899896714281,-91.2047712481489, , , , , , , , , , , , , , , , , , , , , , , , , , , , , , , , , , , , , , , , , , , , , , , , , , , , , , , , , , , , ,
-62.3606002543106,-121.972229995408,-59.6116297410973,182.284164158825,101.948054243753,8.6768380816439,-184.39808520364,-513.279060435369,-216.240316616291,92.1664151248591,-1.37448525660676,-90.7919298682526, , , , , , , , , , , , , , , , , , , , , , , , , , , , , , , , , , , , , , , , , , , , , , , , , , , , , , , , , , , , ,
-63.235767206072,-121.931613307066,-58.6958461009942,180.166036447615,98.4535139234243,14.4276933190802,-176.626633171849,-511.20013319837,-215.322275617852,92.5836902565689,-2.26996055253898,-90.3137297040302, , , , , , , , , , , , , , , , , , , , , , , , , , , , , , , , , , , , , , , , , , , , , , , , , , , , , , , , , , , , ,
-64.2600715843273,-121.827439750631,-57.567368166304,177.820396042018,95.5419471443704,19.8024906463766,-169.383892064698,-508.423662236701,-214.547082891177,93.0437556674791,-3.34635170901174,-89.6974039584677, , , , , , , , , , , , , , , , , , , , , , , , , , , , , , , , , , , , , , , , , , , , , , , , , , , , , , , , , , , , ,
-65.2400128237925,-121.656287376208,-56.4162745524157,175.363767105042,91.5149072241054,24.0881397440608,-162.706983834399,-504.940762943808,-213.916341897382,93.4481501000001,-4.41186913568845,-89.0362809643119, , , , , , , , , , , , , , , , , , , , , , , , , , , , , , , , , , , , , , , , , , , , , , , , , , , , , , , , , , , , ,
-66.2666105302237,-121.419839800271,-55.1532292700468,172.906467621072,88.1903307907106,28.1014723694496,-156.592001154935,-500.772287751249,-213.430728904136,93.8432251652469,-5.55669063008856,-88.2865345351587, , , , , , , , , , , , , , , , , , , , , , , , , , , , , , , , , , , , , , , , , , , , , , , , , , , , , , , , , , , , ,
-67.4375149845643,-121.123864738691,-53.6863497541264,170.546934039943,83.8148741426832,31.0741547444757,-150.996702273567,-495.967092768244,-213.090355636815,94.2806898616273,-6.875582615219,-87.4051072464086, , , , , , , , , , , , , , , , , , , , , , , , , , , , , , , , , , , , , , , , , , , , , , , , , , , , , , , , , , , , ,
-68.5100825532603,-120.77742972374,-52.2673471704794,168.367170468779,80.8762169458317,33.6601008896119,-150.996702273567,-490.598778962849,-212.894972895298,94.6437561384998,-8.12136769139056,-86.5223884471095, , , , , , , , , , , , , , , , , , , , , , , , , , , , , , , , , , , , , , , , , , , , , , , , , , , , , , , , , , , , ,
-69.519696450431,-120.392368343175,-50.8726718927442,166.429442944181,76.6668157420154,35.5962128434304,-150.996702273567,-484.76107996203,-212.843986003447,94.9560323968029,-9.32351227884345,-85.6325201179597, , , , , , , , , , , , , , , , , , , , , , , , , , , , , , , , , , , , , , , , , , , , , , , , , , , , , , , , , , , , ,
-70.4032368847298,-119.98291287671,-49.57967599198,164.774282854657,74.0401632235026,36.7113691522362,-150.996702273567,-478.562121761123,-212.936266292934,95.1930748807195,-10.411780446375,-84.7812944343449, , , , , , , , , , , , , , , , , , , , , , , , , , , , , , , , , , , , , , , , , , , , , , , , , , , , , , , , , , , , ,
-71.2563044466313,-119.565352198386,-48.3090477517545,163.419795477405,71.0296741230602,38.2522829204596,-150.996702273567,-472.117851490575,-215.042825428312,95.4108283225083,-11.4736283474385,-83.9371999750701, , , , , , , , , , , , , , , , , , , , , , , , , , , , , , , , , , , , , , , , , , , , , , , , , , , , , , , , , , , , ,
-71.9579609684068,-119.157568886734,-47.1996079183272,162.362196649901,68.2468620860662,39.3897425997726,-150.996702273567,-465.545024713096,-215.414007387074,95.5577649275701,-12.3791765250398,-83.1785884025306, , , , , , , , , , , , , , , , , , , , , , , , , , , , , , , , , , , , , , , , , , , , , , , , , , , , , , , , , , , , ,
-72.6839582983993,-118.778350817482,-46.0943925190823,161.577438803814,66.5338105406248,38.6323515014652,-150.996702273567,-458.95422650311,-216.445493037094,95.7311545579402,-13.2947828896586,-82.436371668282, , , , , , , , , , , , , , , , , , , , , , , , , , , , , , , , , , , , , , , , , , , , , , , , , , , , , , , , , , , , ,
-73.3121792536698,-118.446448282337,-45.1342690286674,161.023753052709,64.9362916624902,39.2985795613043,-150.996702273567,-452.443444694795,-219.971626106443,95.8793137680033,-14.0889551125013,-81.7903586555023, , , , , , , , , , , , , , , , , , , , , , , , , , , , , , , , , , , , , , , , , , , , , , , , , , , , , , , , , , , , ,
-73.8036999967813,-118.179439828165,-44.3757398313837,162.536845135213,63.4861029895248,37.7629174073673,-150.996702273567,-446.092694882217,-222.855374786663,95.9915699124729,-14.7139800826989,-81.2775898297743, , , , , , , , , , , , , , , , , , , , , , , , , , , , , , , , , , , , , , , , , , , , , , , , , , , , , , , , , , , , ,
-74.2997716833263,-117.992555015037,-43.6927833317107,164.091525334435,62.3907268008026,37.2033012927425,-150.996702273567,-439.960119741054,-223.691687240231,96.1461633491815,-15.3034941758079,-80.8426691733739, , , , , , , , , , , , , , , , , , , , , , , , , , , , , , , , , , , , , , , , , , , , , , , , , , , , , , , , , , , , ,
-74.5030686232609,-117.897656713046,-43.394588089785,163.855502637476,61.5158246680316,35.8174899847912,-150.996702273567,-434.079865112698,-225.515909222827,96.2003626681532,-15.554240266738,-80.6461224014155, , , , , , , , , , , , , , , , , , , , , , , , , , , , , , , , , , , , , , , , , , , , , , , , , , , , , , , , , , , , ,
-74.7411076107838,-117.90258780738,-43.1614801965962,163.629489309361,60.7156877071802,34.8806520339325,-150.996702273567,-428.46188787462,-229.655005320475,96.3218477090816,-15.7898137070939,-80.5320340019881, , , , , , , , , , , , , , , , , , , , , , , , , , , , , , , , , , , , , , , , , , , , , , , , , , , , , , , , , , , , ,
-74.979220640224,-118.011022921315,-43.0318022810904,165.086531315046,60.3042027969618,33.162316850061,-150.996702273567,-423.093690995204,-233.896357227976,96.495121780769,-15.9737091795669,-80.5214126012024, , , , , , , , , , , , , , , , , , , , , , , , , , , , , , , , , , , , , , , , , , , , , , , , , , , , , , , , , , , , ,
-75.2293798521447,-118.222844488697,-42.9934646365526,166.319541432761,59.3774049968766,32.105829676704,-150.996702273567,-417.943822966363,-235.094524179683,96.7261121704208,-16.1179576077961,-80.6081545626249, , , , , , , , , , , , , , , , , , , , , , , , , , , , , , , , , , , , , , , , , , , , , , , , , , , , , , , , , , , , ,
-75.3089421301143,-118.534925366084,-43.2259832359692,167.255525506317,58.1379371067914,29.1460557810147,-150.996702273567,-412.966828925929,-236.097078918126,96.9219337480987,-16.0414794470726,-80.8804543010263, , , , , , , , , , , , , , , , , , , , , , , , , , , , , , , , , , , , , , , , , , , , , , , , , , , , , , , , , , , , ,
-75.4833811756792,-118.942098640671,-43.4587174649922,167.833789505476,56.4752321092051,26.7515591829657,-150.996702273567,-408.109200614939,-237.681353829311,97.212739908175,-16.0123318553436,-81.2004080528318, , , , , , , , , , , , , , , , , , , , , , , , , , , , , , , , , , , , , , , , , , , , , , , , , , , , , , , , , , , , ,
-75.5372610121078,-119.438057998981,-43.9007969868733,168.008956108022,55.0008434899241,24.4662188573591,-150.996702273567,-403.315752421074,-238.583218605323,97.4876595055443,-15.8182320126173,-81.6694274929273, , , , , , , , , , , , , , , , , , , , , , , , , , , , , , , , , , , , , , , , , , , , , , , , , , , , , , , , , , , , ,
-75.5916693762385,-120.015956007342,-44.4242866311034,167.753225319273,52.8728149408998,21.5827388821968,-150.996702273567,-398.535780108986,-241.859737306848,97.8038126917899,-15.5836913725676,-82.2201213192226, , , , , , , , , , , , , , , , , , , , , , , , , , , , , , , , , , , , , , , , , , , , , , , , , , , , , , , , , , , , ,
-75.6124024714866,-120.668537925072,-45.0561354535857,167.057788214017,49.723036913018,18.8325248632587,-150.996702273567,-393.72836933121,-245.823019013852,98.1404701982792,-15.2781335089505,-82.862336689329, , , , , , , , , , , , , , , , , , , , , , , , , , , , , , , , , , , , , , , , , , , , , , , , , , , , , , , , , , , , ,
-76.1005192708809,-121.387752573767,-45.2872333028859,165.933286636889,47.4350662361571,15.4669524102338,-150.996702273567,-388.866323216377,-247.301741698195,98.7441359223237,-15.4066429839976,-83.3374929383264, , , , , , , , , , , , , , , , , , , , , , , , , , , , , , , , , , , , , , , , , , , , , , , , , , , , , , , , , , , , ,
-76.1778986350278,-122.163900863045,-45.9860022280175,164.409216735042,43.4253044024477,12.2432497726734,-150.996702273567,-383.938356254605,-247.807538833987,99.1708997490363,-15.0959482035052,-84.0749515455314, , , , , , , , , , , , , , , , , , , , , , , , , , , , , , , , , , , , , , , , , , , , , , , , , , , , , , , , , , , , ,
-76.2590921520259,-122.984487255815,-46.7253951037894,162.532229877265,39.8989763764294,7.93752505916342,-150.996702273567,-378.949423049816,-250.51996350995,99.6217897039204,-14.7668485241184,-84.8549411798024, , , , , , , , , , , , , , , , , , , , , , , , , , , , , , , , , , , , , , , , , , , , , , , , , , , , , , , , , , , , ,
-76.3872087701106,-123.83300484315,-47.4457960730392,159.623591737741,35.5168487188077,3.53732351077594,-150.996702273567,-373.919275370087,-250.79751600191,100.11010680663,-14.4707063485358,-85.6394004580945, , , , , , , , , , , , , , , , , , , , , , , , , , , , , , , , , , , , , , , , , , , , , , , , , , , , , , , , , , , , ,
-76.8327558276324,-124.687905626199,-47.8551497985663,156.3614326053,31.2382325501957,0.121382406692708,-150.996702273567,-368.879532330573,-250.967145735373,100.760330726915,-14.4888030145331,-86.2715277123825, , , , , , , , , , , , , , , , , , , , , , , , , , , , , , , , , , , , , , , , , , , , , , , , , , , , , , , , , , , , ,
-76.970968847378,-125.521992836865,-48.5510239894865,153.757868596154,26.4439245104761,-3.77960295635415,-150.996702273567,-363.869686631732,-251.036430217132,101.246480842121,-14.2099724289458,-87.0365084131755, , , , , , , , , , , , , , , , , , , , , , , , , , , , , , , , , , , , , , , , , , , , , , , , , , , , , , , , , , , , ,
-77.2042774374598,-126.30242871712,-49.0981512796604,151.265086551265,22.3731206582366,-7.71333480403467,-150.996702273567,-358.932552275563,-251.014265508141,101.75335307729,-14.0530630788998,-87.7002899983903, , , , , , , , , , , , , , , , , , , , , , , , , , , , , , , , , , , , , , , , , , , , , , , , , , , , , , , , , , , , ,
-77.4546591356311,-126.99147919019,-49.5368200545588,148.743579171335,18.4448304118978,-12.2301162558644,-150.996702273567,-354.109686782761,-250.909812510282,102.22306916291,-13.9589195405363,-88.2641496223743, , , , , , , , , , , , , , , , , , , , , , , , , , , , , , , , , , , , , , , , , , , , , , , , , , , , , , , , , , , , ,
-77.515119943614,-127.548020106573,-50.0329001629585,146.262810906308,14.8737201487142,-16.6017637547827,-150.996702273567,-349.437290422713,-250.731561563534,102.531570025093,-13.7411098903278,-88.7904601347655, , , , , , , , , , , , , , , , , , , , , , , , , , , , , , , , , , , , , , , , , , , , , , , , , , , , , , , , , , , , ,
-77.9080723729761,-127.929725923935,-50.0216535509592,143.884782532437,11.3834023271381,-19.6351018285051,-150.996702273567,-344.942996508131,-250.486649279914,102.918899148456,-13.9432094110085,-88.9756897374473, , , , , , , , , , , , , , , , , , , , , , , , , , , , , , , , , , , , , , , , , , , , , , , , , , , , , , , , , , , , ,
-77.8571832918922,-128.095773091597,-50.2385897997047,141.352497029017,7.37523496807942,-23.589589289055,-150.996702273567,-340.643829975629,-251.893359769576,102.976478191744,-13.8092967460938,-89.1671814456508, , , , , , , , , , , , , , , , , , , , , , , , , , , , , , , , , , , , , , , , , , , , , , , , , , , , , , , , , , , , ,
-77.8841694390415,-128.009827449476,-50.1256580104347,138.831113643809,4.62536856658253,-26.8007522887562,-150.996702273567,-336.545445540834,-251.674614160996,102.946998444259,-13.8792557143034,-89.0677427299555, , , , , , , , , , , , , , , , , , , , , , , , , , , , , , , , , , , , , , , , , , , , , , , , , , , , , , , , , , , , ,
-78.2665291466222,-127.643046916171,-49.3765177695484,136.970451122284,2.02111025107136,-29.2568817924361,-150.996702273567,-332.642589352338,-251.256464804002,102.954788031396,-14.445005688537,-88.5097823428594, , , , , , , , , , , , , , , , , , , , , , , , , , , , , , , , , , , , , , , , , , , , , , , , , , , , , , , , , , , , ,
-77.9886592163073,-126.976817264499,-48.9881580481917,135.328542924323,-0.458901850229914,-31.4077892646694,-150.996702273567,-328.920588593589,-252.023394820797,102.482738240403,-14.5002505840579,-87.9824876563453, , , , , , , , , , , , , , , , , , , , , , , , , , , , , , , , , , , , , , , , , , , , , , , , , , , , , , , , , , , , ,
-77.881217971403,-126.004951166493,-48.1237331950894,133.912953439558,-2.66119673556388,-33.3003986252012,-150.996702273567,-325.357581346125,-252.528109224683,101.943084568947,-14.8787423881569,-87.0643421807909, , , , , , , , , , , , , , , , , , , , , , , , , , , , , , , , , , , , , , , , , , , , , , , , , , , , , , , , , , , , ,
-77.4635760740712,-124.735117351708,-47.2715412776372,132.722214722712,-3.50679825184701,-35.6160925122151,-150.996702273567,-321.927158012776,-253.922456106842,101.09934671289,-15.0960173982171,-86.0033293146728, , , , , , , , , , , , , , , , , , , , , , , , , , , , , , , , , , , , , , , , , , , , , , , , , , , , , , , , , , , , ,
-77.7741727904612,-123.207793190212,-45.4336203997508,131.747647793479,-4.14014275039559,-36.0918734673139,-150.996702273567,-318.601087680514,-256.180463416751,100.490982990336,-16.1702761953553,-84.3207067949814, , , , , , , , , , , , , , , , , , , , , , , , , , , , , , , , , , , , , , , , , , , , , , , , , , , , , , , , , , , , ,
-77.2817728575683,-121.511805268614,-44.2300324110455,130.975345847369,-5.62731937636928,-35.7686638154118,-150.996702273567,-315.351836011256,-255.633394909707,99.3967890630908,-16.5258702232615,-82.8709188398296, , , , , , , , , , , , , , , , , , , , , , , , , , , , , , , , , , , , , , , , , , , , , , , , , , , , , , , , , , , , ,
-76.9243430490705,-119.538603832943,-42.6142607838726,130.388143759078,-5.73594524954691,-36.5445648587506,-150.996702273567,-312.154634651704,-255.291154461677,98.2314734410065,-17.155041132599,-81.0764323084078, , , , , , , , , , , , , , , , , , , , , , , , , , , , , , , , , , , , , , , , , , , , , , , , , , , , , , , , , , , , ,
-76.4657032478486,-118.011022921315,-41.5453196734658,129.967437591884,-5.06357487190885,-36.596970746699,-150.996702273567,-308.988926185007,-256.58650405076,97.2383630845813,-17.4601917871914,-79.7781712973901, , , , , , , , , , , , , , , , , , , , , , , , , , , , , , , , , , , , , , , , , , , , , , , , , , , , , , , , , , , , ,
-76.6421083334638,-118.011022921315,-41.3689145878506,129.694753906866,-4.07754997610132,-36.1050931550289,-150.996702273567,-305.839076441115,-255.901357571076,97.3265656273889,-17.6365968728066,-79.6899687545825, , , , , , , , , , , , , , , , , , , , , , , , , , , , , , , , , , , , , , , , , , , , , , , , , , , , , , , , , , , , ,
-76.5310341831641,-118.011022921315,-41.4799887381503,129.55300500181,-3.8474361694613,-34.6841178696592,-150.996702273567,-302.694316805319,-255.225806799216,97.271028552239,-17.5255227225069,-79.7455058297324, , , , , , , , , , , , , , , , , , , , , , , , , , , , , , , , , , , , , , , , , , , , , , , , , , , , , , , , , , , , ,
-76.3537176755351,-118.011022921315,-41.6573052457793,129.527403774858,-4.03546027211782,-34.2243827947895,-150.996702273567,-302.694316805319,-254.570753176117,97.1823702984245,-17.348206214878,-79.8341640835468, , , , , , , , , , , , , , , , , , , , , , , , , , , , , , , , , , , , , , , , , , , , , , , , , , , , , , , , , , , , ,
-76.3709710790969,-118.011022921315,-41.6400518422175,129.606044499147,-3.00814104057971,-33.7777178305741,-150.996702273567,-302.694316805319,-253.944497954471,97.1909970002054,-17.3654596184398,-79.8255373817659, , , , , , , , , , , , , , , , , , , , , , , , , , , , , , , , , , , , , , , , , , , , , , , , , , , , , , , , , , , , ,
-76.4905838870546,-118.011022921315,-41.5204390342598,129.780176846103,-1.87317430996691,-31.8462318736646,-150.996702273567,-302.694316805319,-253.351300942172,97.2508034041843,-17.4850724263974,-79.7657309777871, , , , , , , , , , , , , , , , , , , , , , , , , , , , , , , , , , , , , , , , , , , , , , , , , , , , , , , , , , , , ,
-77.4436737520716,-118.011022921315,-40.5673491692427,130.044206952827,-2.88519859005091,-30.7009661871756,-150.996702273567,-302.694316805319,-252.790117934924,97.7273483366928,-18.4381622914145,-79.2891860452786, , , , , , , , , , , , , , , , , , , , , , , , , , , , , , , , , , , , , , , , , , , , , , , , , , , , , , , , , , , , ,
-77.8746853099808,-118.011022921315,-40.1363376113336,130.395452721491,-2.07573999211913,-30.7157118454474,-150.996702273567,-302.694316805319,-252.253682102158,97.9428541156474,-18.8691738493237,-79.073680266324, , , , , , , , , , , , , , , , , , , , , , , , , , , , , , , , , , , , , , , , , , , , , , , , , , , , , , , , , , , , ,
-78.4479638061476,-118.011022921315,-39.5630591151668,130.833669008719,-1.45181731256812,-29.1235221067386,-150.996702273567,-302.694316805319,-251.728049932781,98.2294933637308,-19.4424523454904,-78.7870410182406, , , , , , , , , , , , , , , , , , , , , , , , , , , , , , , , , , , , , , , , , , , , , , , , , , , , , , , , , , , , ,
-79.1354685246095,-117.771425458899,-38.6359569342894,131.36035298844,-2.56349958715818,-27.8458792085561,-150.996702273567,-302.694316805319,-251.192676577474,98.453446991754,-20.2497557951601,-78.2036911965941, , , , , , , , , , , , , , , , , , , , , , , , , , , , , , , , , , , , , , , , , , , , , , , , , , , , , , , , , , , , ,
-80.4277650810705,-117.279480710846,-36.8517156297757,131.977847645606,-2.26332223540808,-27.7618505217978,-150.996702273567,-302.694316805319,-250.621036663469,98.8536228959581,-21.7880247256475,-77.0655981703109, , , , , , , , , , , , , , , , , , , , , , , , , , , , , , , , , , , , , , , , , , , , , , , , , , , , , , , , , , , , ,
-81.2625174496865,-116.866403397351,-35.6038859476646,132.688282668907,-1.83323710856418,-26.5703093988261,-150.996702273567,-302.694316805319,-249.981771413798,99.0644604235186,-22.8293157510111,-76.2351446725078, , , , , , , , , , , , , , , , , , , , , , , , , , , , , , , , , , , , , , , , , , , , , , , , , , , , , , , , , , , , ,
-82.1360283207851,-116.565370030499,-34.4293417097138,133.492421464366,-2.11298165536916,-26.6412735308181,-150.996702273567,-302.694316805319,-249.240312929404,99.3506991756418,-23.8533433055357,-75.4973558701064, , , , , , , , , , , , , , , , , , , , , , , , , , , , , , , , , , , , , , , , , , , , , , , , , , , , , , , , , , , , ,
-82.9780947995804,-116.834066368433,-33.8559715688525,134.388510952773,-2.33365278478563,-25.8931232148943,-150.996702273567,-302.694316805319,-248.360899657003,99.9060805840064,-24.5610616153641,-75.3450189686427, , , , , , , , , , , , , , , , , , , , , , , , , , , , , , , , , , , , , , , , , , , , , , , , , , , , , , , , , , , , ,
-84.0771553295865,-116.892766798312,-32.8156114687249,135.371251003048,-2.18630775334284,-25.1720129492102,-150.996702273567,-302.694316805319,-247.308852426109,100.484961063949,-25.6307719304309,-74.8541891335181, , , , , , , , , , , , , , , , , , , , , , , , , , , , , , , , , , , , , , , , , , , , , , , , , , , , , , , , , , , , ,
-84.7788897859708,-116.773499781291,-31.9946099953201,136.431013410607,-1.40278876433504,-24.413657153796,-150.996702273567,-302.694316805319,-246.052939612954,100.776194783631,-26.3921398953254,-74.3840548883055, , , , , , , , , , , , , , , , , , , , , , , , , , , , , , , , , , , , , , , , , , , , , , , , , , , , , , , , , , , , ,
-85.3724781231479,-117.083163107089,-31.7106849839412,137.55344363697,-0.150416000800668,-23.7434894131861,-150.996702273567,-302.694316805319,-244.567636109168,101.227820615118,-26.8308965696034,-74.3969240455152, , , , , , , , , , , , , , , , , , , , , , , , , , , , , , , , , , , , , , , , , , , , , , , , , , , , , , , , , , , , ,
-85.7984987034869,-117.011967983253,-31.2134692797659,138.719557446088,1.35513746062382,-22.8837470558389,-150.996702273567,-302.694316805319,-242.835081366016,101.40523334337,-27.2925147118606,-74.1127186315094, , , , , , , , , , , , , , , , , , , , , , , , , , , , , , , , , , , , , , , , , , , , , , , , , , , , , , , , , , , , ,
-86.1476567899406,-116.817176141484,-30.6695193515437,139.90638411247,2.42383603992491,-21.8935888746548,-150.996702273567,-302.694316805319,-240.846567520006,101.482416465712,-27.7390687191985,-73.743347746514, , , , , , , , , , , , , , , , , , , , , , , , , , , , , , , , , , , , , , , , , , , , , , , , , , , , , , , , , , , , ,
-86.1943735557481,-116.546645082663,-30.3522715269149,139.95642597156,3.95436028001129,-20.3622810425058,-150.996702273567,-302.694316805319,-238.603432461408,101.370509319205,-27.9210510144167,-73.4494583047889, , , , , , , , , , , , , , , , , , , , , , , , , , , , , , , , , , , , , , , , , , , , , , , , , , , , , , , , , , , , ,
-86.8424863783025,-116.079293478969,-29.2368071006664,139.083125031991,7.26381773204717,-18.7109325646613,-150.996702273567,-302.694316805319,-236.117284746053,101.460889928635,-28.8028396388182,-72.6580502898176, , , , , , , , , , , , , , , , , , , , , , , , , , , , , , , , , , , , , , , , , , , , , , , , , , , , , , , , , , , , ,
-86.4590730827331,-115.364134317944,-28.9050612352103,139.40193531274,9.21403769057063,-16.3512382907906,-150.996702273567,-302.694316805319,-233.409542348708,100.911603700338,-28.7770059237615,-72.1345977765769, , , , , , , , , , , , , , , , , , , , , , , , , , , , , , , , , , , , , , , , , , , , , , , , , , , , , , , , , , , , ,
-85.8635046071031,-114.628142865867,-28.7646382587637,139.748772395675,11.3382017779079,-13.7363269606391,-150.996702273567,-302.694316805319,-230.510322689941,100.245823736485,-28.5494331741698,-71.6963905623153, , , , , , , , , , , , , , , , , , , , , , , , , , , , , , , , , , , , , , , , , , , , , , , , , , , , , , , , , , , , ,
-85.0712700642498,-113.8648100332,-28.7935399689499,138.98916865642,15.6015564721483,-10.3859972428474,-150.996702273567,-302.694316805319,-227.456770690997,99.4680400487246,-28.13886504765,-71.3291750010748, , , , , , , , , , , , , , , , , , , , , , , , , , , , , , , , , , , , , , , , , , , , , , , , , , , , , , , , , , , , ,
-84.108435081464,-113.138641197679,-29.0302061162145,139.12173856478,17.9716817486011,-6.46344458958168,-150.996702273567,-302.694316805319,-224.290948969019,98.6235381395711,-27.5391144826248,-71.0844236569465, , , , , , , , , , , , , , , , , , , , , , , , , , , , , , , , , , , , , , , , , , , , , , , , , , , , , , , , , , , , ,
-83.0112250082316,-112.255474465431,-29.244249457199,140.223117623032,20.6209855805978,-1.93370703945714,-150.996702273567,-302.694316805319,-221.057438741021,97.6333497368309,-26.8834877755164,-70.7498619613148, , , , , , , , , , , , , , , , , , , , , , , , , , , , , , , , , , , , , , , , , , , , , , , , , , , , , , , , , , , , ,
-81.8248213908618,-111.645633853309,-29.8208124624471,141.147110585009,24.5614579998688,3.2684698978531,-150.561789684369,-302.694316805319,-217.800810408476,96.7352276220851,-26.0020044642074,-70.733223157878, , , , , , , , , , , , , , , , , , , , , , , , , , , , , , , , , , , , , , , , , , , , , , , , , , , , , , , , , , , , ,
-80.6013106134459,-111.350507061748,-30.7491964483022,141.876252881007,28.055889325463,9.09782149097288,-130.917338017941,-302.694316805319,-214.563118190312,95.9759088375968,-24.926057082572,-71.0498517550251, , , , , , , , , , , , , , , , , , , , , , , , , , , , , , , , , , , , , , , , , , , , , , , , , , , , , , , , , , , , ,
-79.3968426139834,-111.060560934941,-31.663718320957,142.401197324981,30.6605579496134,15.4740306649099,-110.976702515201,-302.694316805319,-211.381560184016,95.2287017744617,-23.8665621465133,-71.3621396279487, , , , , , , , , , , , , , , , , , , , , , , , , , , , , , , , , , , , , , , , , , , , , , , , , , , , , , , , , , , , ,
-78.2681883516625,-110.873158646921,-32.6049702952582,142.720832704569,33.2982453231349,22.7503999093986,-91.3075952847265,-302.694316805319,-208.286432900627,94.5706734992914,-22.8316090282023,-71.7390644710894, , , , , , , , , , , , , , , , , , , , , , , , , , , , , , , , , , , , , , , , , , , , , , , , , , , , , , , , , , , , ,
-77.2689932440586,-110.875384628193,-33.6063913841339,142.841902422442,35.8973157515063,30.3576759790522,-77.8919795063082,-302.694316805319,-205.299497091131,94.0721889361254,-21.8313009299624,-72.2408880061633, , , , , , , , , , , , , , , , , , , , , , , , , , , , , , , , , , , , , , , , , , , , , , , , , , , , , , , , , , , , ,
-76.4460832243217,-111.765153726114,-35.3190705017926,142.778161298649,38.9793855096948,38.7200196366321,-62.2707988302427,-302.694316805319,-202.432853096256,94.1056184752178,-20.5635063612646,-73.5421121139535, , , , , , , , , , , , , , , , , , , , , , , , , , , , , , , , , , , , , , , , , , , , , , , , , , , , , , , , , , , , ,
-75.8361759870304,-112.663050382811,-36.8268743957809,142.549126546901,43.0225199441293,47.4133879303191,-43.6608904549872,-302.694316805319,-200.032872162034,94.2496131849206,-19.5046507956249,-74.7449623892961, , , , , , , , , , , , , , , , , , , , , , , , , , , , , , , , , , , , , , , , , , , , , , , , , , , , , , , , , , , , ,
-75.4632855360568,-113.745501033246,-38.2822154971893,142.178512509309,45.740717714601,56.4680301218221,-25.6412705198421,-302.694316805319,-200.032872162034,94.6043932846512,-18.5905350194338,-76.0138582652177, , , , , , , , , , , , , , , , , , , , , , , , , , , , , , , , , , , , , , , , , , , , , , , , , , , , , , , , , , , , ,
-75.3370046970078,-114.890812736491,-39.5538080394829,141.692476432129,48.1667720381865,65.563527297027,-8.25519942025062,-302.694316805319,-200.032872162034,95.113908716749,-17.8915983287625,-77.2223103879868, , , , , , , , , , , , , , , , , , , , , , , , , , , , , , , , , , , , , , , , , , , , , , , , , , , , , , , , , , , , ,
-75.4517423462501,-116.73207590454,-41.2803335582895,141.117829266592,51.4334793597221,74.7718105367595,0.885606720797227,-302.694316805319,-200.032872162034,96.0919091253946,-17.0857043939804,-79.0062047314145, , , , , , , , , , , , , , , , , , , , , , , , , , , , , , , , , , , , , , , , , , , , , , , , , , , , , , , , , , , , ,
-75.7869100084936,-118.011022921315,-42.2241129128208,140.480374648924,54.4721982788234,83.968099268516,17.394234990801,-302.694316805319,-200.032872162034,96.8989664649038,-16.7813985478365,-80.1175679170676, , , , , , , , , , , , , , , , , , , , , , , , , , , , , , , , , , , , , , , , , , , , , , , , , , , , , , , , , , , , ,
-76.308000461875,-120.275282804173,-43.9672823422976,139.803524535363,57.1611271625294,93.9356635127359,33.38270606501,-302.694316805319,-200.032872162034,98.2916416330235,-16.1703590597888,-82.1212825732351, , , , , , , , , , , , , , , , , , , , , , , , , , , , , , , , , , , , , , , , , , , , , , , , , , , , , , , , , , , , ,
-76.9684607487153,-121.907038596475,-44.9385778477599,139.107294783875,59.5731026816083,102.532592395377,48.8177670931868,-302.694316805319,-200.032872162034,99.437749672595,-16.0149414504778,-83.4228082221175, , , , , , , , , , , , , , , , , , , , , , , , , , , , , , , , , , , , , , , , , , , , , , , , , , , , , , , , , , , , ,
-77.7122202269962,-123.691119982237,-45.9788997552411,138.407717814593,62.889775210079,112.076044244753,63.7736295831508,-302.694316805319,-200.032872162034,100.701670104616,-15.8666602358776,-84.8350098687392, , , , , , , , , , , , , , , , , , , , , , , , , , , , , , , , , , , , , , , , , , , , , , , , , , , , , , , , , , , , ,
-78.4766934159539,-124.832413677062,-46.3557202611085,137.716650865593,65.4184427653271,120.223573570229,75.5797725967067,-302.694316805319,-200.032872162034,101.654553546508,-16.0604865774228,-85.5940669690854, , , , , , , , , , , , , , , , , , , , , , , , , , , , , , , , , , , , , , , , , , , , , , , , , , , , , , , , , , , , ,
-79.1960407897738,-126.159513182785,-46.9634723930115,137.041931609808,67.8521613244963,127.82733722403,87.1371667057126,-302.694316805319,-200.032872162034,102.677776986279,-16.1162841983812,-86.5614927878984, , , , , , , , , , , , , , , , , , , , , , , , , , , , , , , , , , , , , , , , , , , , , , , , , , , , , , , , , , , , ,
-79.8044396997339,-127.080969390608,-47.2765296908736,136.387835414165,70.5687616776705,136.797622461469,101.565142872187,-302.694316805319,-200.032872162034,103.44270454517,-16.2639550044302,-87.1787495407405, , , , , , , , , , , , , , , , , , , , , , , , , , , , , , , , , , , , , , , , , , , , , , , , , , , , , , , , , , , , ,
-80.2391050571311,-127.803029947096,-47.5639248899643,135.755792857069,73.4578110444295,144.371677427968,115.897737676118,-302.694316805319,-200.032872162034,104.021067502113,-16.3375900835835,-87.6834774185299, , , , , , , , , , , , , , , , , , , , , , , , , , , , , , , , , , , , , , , , , , , , , , , , , , , , , , , , , , , , ,
-80.4428260143132,-127.789127207223,-47.3463011929094,135.145306770131,77.2028966400894,150.941078562538,130.260679458735,-302.694316805319,-200.032872162034,104.115976610768,-16.548262410702,-87.567714200066, , , , , , , , , , , , , , , , , , , , , , , , , , , , , , , , , , , , , , , , , , , , , , , , , , , , , , , , , , , , ,
-80.3658575522707,-127.603303671479,-47.2374461192082,134.554969037134,80.6613160467037,158.805291094008,144.77613965125,-302.694316805319,-200.032872162034,103.984580611875,-16.5642057165313,-87.4203748953435, , , , , , , , , , , , , , , , , , , , , , , , , , , , , , , , , , , , , , , , , , , , , , , , , , , , , , , , , , , , ,
-79.9671085116919,-126.572915281477,-46.6058067697852,132.64299568985,84.5383586801741,166.50178284473,159.556233713255,-302.694316805319,-200.032872162034,103.270011896584,-16.6806508709535,-86.5893610256311, , , , , , , , , , , , , , , , , , , , , , , , , , , , , , , , , , , , , , , , , , , , , , , , , , , , , , , , , , , , ,
-79.2146730821054,-125.292350346097,-46.0776772639912,130.205711478272,87.9464879765779,173.120646067511,171.527500402603,-294.410968593463,-200.032872162034,102.253511714101,-16.5684979090572,-85.685013805044, , , , , , , , , , , , , , , , , , , , , , , , , , , , , , , , , , , , , , , , , , , , , , , , , , , , , , , , , , , , ,
-78.085839183019,-123.245976652169,-45.1601374691503,127.817951847817,92.2791395889431,180.589450700742,185.400916486535,-278.8402347927,-200.032872162034,100.665907917594,-16.4628508569344,-84.2030570606597, , , , , , , , , , , , , , , , , , , , , , , , , , , , , , , , , , , , , , , , , , , , , , , , , , , , , , , , , , , , ,
-76.566762836161,-120.813575986176,-44.2468131500145,125.49810460196,95.3652996936439,188.556160325525,201.393956121893,-268.785352016516,-200.032872162034,98.690169411168,-16.1599748430733,-82.530194568095, , , , , , , , , , , , , , , , , , , , , , , , , , , , , , , , , , , , , , , , , , , , , , , , , , , , , , , , , , , , ,
-74.6520154730984,-118.011022921315,-43.359007448216,123.26337348801,99.8013323469761,197.225753909168,217.884846174257,-258.629171767013,-200.032872162034,96.3315191972062,-15.6465040124413,-80.6850151847652, , , , , , , , , , , , , , , , , , , , , , , , , , , , , , , , , , , , , , , , , , , , , , , , , , , , , , , , , , , , ,
-72.344184869762,-118.011022921315,-45.6668380515524,121.128739462678,103.694553207168,204.792939911143,234.887086302277,-248.901206795363,-200.032872162034,95.177603895538,-13.3386734091049,-81.8389304864334, , , , , , , , , , , , , , , , , , , , , , , , , , , , , , , , , , , , , , , , , , , , , , , , , , , , , , , , , , , , ,
-69.6536392768191,-118.011022921315,-48.3573836444953,119.105928195237,107.382597550586,213.164448495261,252.386910176349,-232.189141450542,-200.032872162034,93.8323310990665,-10.6481278161619,-83.1842032829049, , , , , , , , , , , , , , , , , , , , , , , , , , , , , , , , , , , , , , , , , , , , , , , , , , , , , , , , , , , , ,
-69.6536392768191,-118.011022921315,-48.3573836444953,117.202500482194,111.65709805043,223.382068648297,270.34485289524,-214.936372589395,-200.032872162034,93.8323310990665,-10.6481278161619,-83.1842032829049, , , , , , , , , , , , , , , , , , , , , , , , , , , , , , , , , , , , , , , , , , , , , , , , , , , , , , , , , , , , ,
-69.6536392768191,-118.011022921315,-48.3573836444953,115.421172969499,115.838721460062,233.177804871669,284.232238869873,-197.920890983904,-200.032872162034,93.8323310990665,-10.6481278161619,-83.1842032829049, , , , , , , , , , , , , , , , , , , , , , , , , , , , , , , , , , , , , , , , , , , , , , , , , , , , , , , , , , , , ,
-69.6536392768191,-118.011022921315,-48.3573836444953,113.75945015343,119.550045964902,243.224768117558,302.215452197033,-187.274824507834,-200.032872162034,93.8323310990665,-10.6481278161619,-83.1842032829049, , , , , , , , , , , , , , , , , , , , , , , , , , , , , , , , , , , , , , , , , , , , , , , , , , , , , , , , , , , , ,
-69.6536392768191,-118.011022921315,-48.3573836444953,112.209608135356,123.69613883533,253.561272967198,321.190889285857,-170.757043525971,-200.032872162034,93.8323310990665,-10.6481278161619,-83.1842032829049, , , , , , , , , , , , , , , , , , , , , , , , , , , , , , , , , , , , , , , , , , , , , , , , , , , , , , , , , , , , ,
-69.6536392768191,-108.382058590968,-38.7284193141486,110.759027238107,127.518926657895,264.631094798056,340.34951592415,-154.337834757479,-200.032872162034,89.0178489338931,-15.4626099813353,-73.5552389525581, , , , , , , , , , , , , , , , , , , , , , , , , , , , , , , , , , , , , , , , , , , , , , , , , , , , , , , , , , , , ,
-69.6536392768191,-101.261433553048,-31.6077942762287,109.390839534629,131.724948908072,276.421616951958,359.591483358381,-138.258389214092,-200.032872162034,85.4575364149332,-19.0229225002952,-66.4346139146383, , , , , , , , , , , , , , , , , , , , , , , , , , , , , , , , , , , , , , , , , , , , , , , , , , , , , , , , , , , , ,
-69.6536392768191,-93.8854962118324,-24.2318569350133,108.084842205382,135.627548399674,287.274545859447,378.818900761006,-124.604305964996,-194.110082414639,81.7695677443255,-22.710891170903,-59.0586765734228, , , , , , , , , , , , , , , , , , , , , , , , , , , , , , , , , , , , , , , , , , , , , , , , , , , , , , , , , , , , ,
-69.6536392768191,-84.5617363074333,-14.9080970306141,106.818618023338,139.877543380112,299.463841030753,397.171136451668,-112.431114512934,-189.82053365312,77.1076877921259,-27.3727711231026,-49.7349166690236, , , , , , , , , , , , , , , , , , , , , , , , , , , , , , , , , , , , , , , , , , , , , , , , , , , , , , , , , , , , ,
-66.7714943803365,-77.907407685931,-11.1359133055945,105.568791773813,143.707752355811,310.792919447405,412.75428075601,-97.0692346489629,-185.239224105634,72.3394510331335,-27.8177905373711,-44.5216604957627, , , , , , , , , , , , , , , , , , , , , , , , , , , , , , , , , , , , , , , , , , , , , , , , , , , , , , , , , , , , ,
-61.3273003740178,-73.039724280874,-11.7124239068561,104.312338693463,147.959633369824,323.113682544352,431.822144788235,-81.9030066888976,-179.5948566663,67.1835123274456,-24.8074382335809,-42.376074093865, , , , , , , , , , , , , , , , , , , , , , , , , , , , , , , , , , , , , , , , , , , , , , , , , , , , , , , , , , , , ,
-56.6427804011481,-67.842157811246,-11.1993774100977,103.027852835183,151.69685898581,335.00203465165,450.648074401051,-66.8378257818337,-176.11804914684,62.2424691061968,-22.7217014955253,-39.5207676106718, , , , , , , , , , , , , , , , , , , , , , , , , , , , , , , , , , , , , , , , , , , , , , , , , , , , , , , , , , , , ,
-52.0533851909014,-61.1268410797424,-9.07345588884091,101.696680674845,155.987433341883,346.925358066881,469.207538688843,-55.1019269170494,-169.694232680036,56.5901131353217,-21.4899646510303,-35.1001484842916, , , , , , , , , , , , , , , , , , , , , , , , , , , , , , , , , , , , , , , , , , , , , , , , , , , , , , , , , , , , ,
-47.7476815743052,-52.6589791201071,-4.91129754580182,100.303834156678,159.620579989647,358.491732240156,487.500680500466,-42.0358037478632,-166.205055336697,50.2033303472059,-21.4181920142518,-28.7851383329544, , , , , , , , , , , , , , , , , , , , , , , , , , , , , , , , , , , , , , , , , , , , , , , , , , , , , , , , , , , , ,
-43.7873338967458,-45.1401589488415,-1.35282505209564,98.8386286433552,163.71152226026,371.234979456351,505.552720226459,-26.760359999715,-159.614382000903,44.4637464227934,-21.2172544223251,-23.2464920004685, , , , , , , , , , , , , , , , , , , , , , , , , , , , , , , , , , , , , , , , , , , , , , , , , , , , , , , , , , , , ,
-39.5676311372625,-39.9195324244898,-0.35190128722725,97.295040840006,167.60688922226,384.142013791726,523.413022747436,-11.18543837194,-155.449690616765,39.7435817808759,-19.6078649250177,-20.1357168558585, , , , , , , , , , , , , , , , , , , , , , , , , , , , , , , , , , , , , , , , , , , , , , , , , , , , , , , , , , , , ,
-35.5264162269937,-35.0357160316951,0.490700195298743,95.6718220666445,171.179254347948,396.289440388566,541.153031260621,3.63115533016804,-148.676670508919,35.2810661293441,-18.0085582111463,-17.2725079181981, , , , , , , , , , , , , , , , , , , , , , , , , , , , , , , , , , , , , , , , , , , , , , , , , , , , , , , , , , , , ,
-31.7578490625609,-30.1624568004134,1.59539226214757,93.9724066462643,175.869549984943,408.961827969713,558.86334427575,15.3122305807554,-144.101790975475,30.9601529314869,-16.6766206623543,-14.2835322691329, , , , , , , , , , , , , , , , , , , , , , , , , , , , , , , , , , , , , , , , , , , , , , , , , , , , , , , , , , , , ,
-26.6081535992792,-25.2740839100116,1.33406968926765,92.204627246734,179.523248287264,421.457957326154,576.65018327807,32.1545290788243,-136.760608482543,25.9411187546451,-13.9711116442735,-11.9700071103719, , , , , , , , , , , , , , , , , , , , , , , , , , , , , , , , , , , , , , , , , , , , , , , , , , , , , , , , , , , , ,
-23.0744703952574,-19.9726317883115,3.10183860694598,90.3802213837481,184.289368828801,434.577306852815,594.631392624195,49.6134606179189,-132.000453622933,21.5235510917842,-13.0881545011018,-8.43539659068273, , , , , , , , , , , , , , , , , , , , , , , , , , , , , , , , , , , , , , , , , , , , , , , , , , , , , , , , , , , , ,
-17.7776586227443,-14.7480135066042,3.0296451161402,88.5141171096755,188.526780764092,447.634195155844,612.738459907827,65.8074154495206,-124.024213853021,16.262836064674,-10.4036518694423,-5.85918419523196, , , , , , , , , , , , , , , , , , , , , , , , , , , , , , , , , , , , , , , , , , , , , , , , , , , , , , , , , , , , ,
-14.0788647408026,-8.97344996058494,5.1054147802178,86.6235208808383,192.525860823982,461.376823411796,630.372120434937,79.9941997383048,-118.847284500339,11.5261573506935,-9.59213976051029,-1.93401759018352, , , , , , , , , , , , , , , , , , , , , , , , , , , , , , , , , , , , , , , , , , , , , , , , , , , , , , , , , , , , ,
-10.1429147138408,-3.28338553424554,6.85952917959536,86.0673203368065,198.455756123034,476.297800700846,649.532087953515,99.2653335169574,-110.675451875691,6.71315012404288,-8.50122194671815,1.78807182267497, , , , , , , , , , , , , , , , , , , , , , , , , , , , , , , , , , , , , , , , , , , , , , , , , , , , , , , , , , , , ,
-5.35747778151264,2.9293896727818,8.28686745429455,86.0673203368065,202.819035635914,489.96098634454,669.292349994319,119.165918833932,-104.416493149834,1.21404405436515,-6.82217261790368,5.60812856353823, , , , , , , , , , , , , , , , , , , , , , , , , , , , , , , , , , , , , , , , , , , , , , , , , , , , , , , , , , , , ,
-0.15998055021268,9.17565049116821,9.33563104138101,86.0673203368065,207.75294252775,504.960083679147,689.765741043761,134.322647650101,-96.4380721178417,-4.50783497047804,-4.74780579579692,9.25564076627467, , , , , , , , , , , , , , , , , , , , , , , , , , , , , , , , , , , , , , , , , , , , , , , , , , , , , , , , , , , , ,
4.59760943416731,15.7124318611685,11.1148224270013,86.0673203368065,214.312157500255,519.876470999556,711.049669038517,153.929840023913,-89.0718873703839,-10.1550206476682,-3.25860649641709,13.413627144085, , , , , , , , , , , , , , , , , , , , , , , , , , , , , , , , , , , , , , , , , , , , , , , , , , , , , , , , , , , , ,
11.1345557785083,22.0018315605656,10.8672757820574,86.0673203368065,219.33332097524,535.961290863969,733.220377697507,175.343069762612,-81.3638900839562,-16.5681936695373,0.133639998225361,16.4345536713116, , , , , , , , , , , , , , , , , , , , , , , , , , , , , , , , , , , , , , , , , , , , , , , , , , , , , , , , , , , , ,
16.5278177020286,28.9280555270229,12.4002378249944,85.8540560354146,225.367511077124,551.955613295615,756.327993692532,193.499315779092,-72.9382157010294,-22.7279366145261,2.063789938517,20.6641466760088, , , , , , , , , , , , , , , , , , , , , , , , , , , , , , , , , , , , , , , , , , , , , , , , , , , , , , , , , , , , ,
21.8375097126267,35.7528781572185,13.9153684445919,84.155048770056,232.513543927676,569.673014125189,780.392877170791,212.664893695289,-65.5475958358936,-28.7951939349228,3.96107063401729,24.8341233009052, , , , , , , , , , , , , , , , , , , , , , , , , , , , , , , , , , , , , , , , , , , , , , , , , , , , , , , , , , , , ,
28.5488920569206,43.318288843253,14.7693967863325,82.2305182343073,238.159544249189,585.941519461164,805.40369164933,235.040349946427,-56.1640322063082,-35.933590450087,6.88974763529393,29.0438428147928, , , , , , , , , , , , , , , , , , , , , , , , , , , , , , , , , , , , , , , , , , , , , , , , , , , , , , , , , , , , ,
34.9700426158938,50.0625575386082,15.0925149227145,80.6950532795148,244.869254390264,604.386828745072,831.317458086333,254.712118477973,-49.1135205362167,-42.5163000772513,9.93876384658955,32.5775362306614, , , , , , , , , , , , , , , , , , , , , , , , , , , , , , , , , , , , , , , , , , , , , , , , , , , , , , , , , , , , ,
41.3158830356444,57.5865460047714,16.2706629691272,78.91211332406,251.787214428901,621.684609427109,856.631317037828,273.997902312015,-39.2457909146313,-49.4512145202082,12.5226100332585,36.9286044869494, , , , , , , , , , , , , , , , , , , , , , , , , , , , , , , , , , , , , , , , , , , , , , , , , , , , , , , , , , , , ,
49.2995582082456,64.6801483793328,15.3805901710873,77.450248888702,257.829104578336,639.314245089675,880.852638870853,292.486473382011,-31.8620238140952,-56.9898532937895,16.9594840185791,40.0303692752101, , , , , , , , , , , , , , , , , , , , , , , , , , , , , , , , , , , , , , , , , , , , , , , , , , , , , , , , , , , , ,
55.6839936656886,72.0170320869268,16.3330384212383,76.0570041507509,264.873250214077,658.086941914938,908.755338419404,309.398428618739,-22.1915003966423,-63.8505128763079,19.6754776222251,44.1750352540826, , , , , , , , , , , , , , , , , , , , , , , , , , , , , , , , , , , , , , , , , , , , , , , , , , , , , , , , , , , , ,
62.0443666437453,79.5059564544032,17.461589810658,74.5563864121666,270.982792240944,676.732457570395,937.232296857153,330.798287678542,-14.0849742173463,-70.7751615490745,22.2913884165436,48.4837731325307, , , , , , , , , , , , , , , , , , , , , , , , , , , , , , , , , , , , , , , , , , , , , , , , , , , , , , , , , , , , ,
69.3060515920698,87.3414622401166,18.0354106480469,73.1269688439644,277.743038976212,695.393650079895,966.151226131283,351.419720930661,-4.89536507633937,-78.3237569160935,25.6353204720114,52.6884364440818, , , , , , , , , , , , , , , , , , , , , , , , , , , , , , , , , , , , , , , , , , , , , , , , , , , , , , , , , , , , ,
76.6456949781719,94.6483813339998,18.002686355828,71.3741481184017,283.748503204966,714.30170343493,995.38006830023,371.366037713427,3.82325176448089,-85.6470381560861,29.3215043111719,56.3255338449139, , , , , , , , , , , , , , , , , , , , , , , , , , , , , , , , , , , , , , , , , , , , , , , , , , , , , , , , , , , , ,
83.0878420343888,102.114440872335,19.0265988379463,69.7411496377568,289.643402155895,732.768467156889,1023.71004992756,394.505760525423,12.4999190550956,-92.6011414533622,32.0306215982212,60.5705198551407, , , , , , , , , , , , , , , , , , , , , , , , , , , , , , , , , , , , , , , , , , , , , , , , , , , , , , , , , , , , ,
91.2572247294636,109.573649858589,18.3164251291255,67.9427625876807,295.396342575324,751.342352465955,1049.45534187699,415.244118652261,20.1550364243345,-100.415437294027,36.4703998001689,63.9450374938573, , , , , , , , , , , , , , , , , , , , , , , , , , , , , , , , , , , , , , , , , , , , , , , , , , , , , , , , , , , , ,
97.8168109918402,117.305127238534,19.4883162466938,65.9266941310685,300.984337147356,769.569504172708,1079.11078420383,435.430783653976,29.217790803919,-107.560969115187,39.1642473725731,68.3967217426139, , , , , , , , , , , , , , , , , , , , , , , , , , , , , , , , , , , , , , , , , , , , , , , , , , , , , , , , , , , , ,
104.28682045159,125.397532064816,21.1107116132262,63.7602008136226,306.394527086662,787.68463537308,1108.74685858252,458.401626475895,37.3685704481697,-114.842176258204,41.588054419182,73.2541218390214, , , , , , , , , , , , , , , , , , , , , , , , , , , , , , , , , , , , , , , , , , , , , , , , , , , , , , , , , , , , ,
111.087973626276,133.419910904031,22.3319372777553,61.5058359572871,311.625276544725,805.908320034675,1138.33567883054,479.262181909374,47.1444208094485,-122.253942265154,44.3780181742601,77.8759240908932, , , , , , , , , , , , , , , , , , , , , , , , , , , , , , , , , , , , , , , , , , , , , , , , , , , , , , , , , , , , ,
118.931142321195,141.356466534806,22.4253242136113,59.0681853968624,316.686444596791,823.715195263594,1167.88886312448,499.624065722684,54.712005248429,-130.143804428001,48.2529090537919,81.890895374209, , , , , , , , , , , , , , , , , , , , , , , , , , , , , , , , , , , , , , , , , , , , , , , , , , , , , , , , , , , , ,
125.875172500226,149.577360533736,23.7021880335103,56.3566914639535,321.598715081014,843.330650698642,1197.09454855963,522.462021901585,64.3711002095396,-137.726266516982,51.0864922333579,86.6397742836234, , , , , , , , , , , , , , , , , , , , , , , , , , , , , , , , , , , , , , , , , , , , , , , , , , , , , , , , , , , , ,
133.545381885499,157.829576628044,24.284194742545,53.0975180519858,326.391961755687,860.956964116489,1222.68612157661,543.561613518756,72.6663761374157,-145.687479256772,54.6305935714771,91.0568856852946, , , , , , , , , , , , , , , , , , , , , , , , , , , , , , , , , , , , , , , , , , , , , , , , , , , , , , , , , , , , ,
140.141944849307,166.124140776584,25.9821959272775,49.6777250598391,331.102733221414,878.563579760352,1248.68258854837,564.088931072197,81.5542702506938,-153.133042812946,57.0798744610147,96.053168351931, , , , , , , , , , , , , , , , , , , , , , , , , , , , , , , , , , , , , , , , , , , , , , , , , , , , , , , , , , , , ,
146.719002959868,174.410058454497,27.6910554946287,46.1725808216393,335.77104952914,896.191261373808,1277.81367114355,586.930472630773,90.7722365902976,-160.564530707183,59.5139737326197,101.050556974563, , , , , , , , , , , , , , , , , , , , , , , , , , , , , , , , , , , , , , , , , , , , , , , , , , , , , , , , , , , , ,
153.899212416653,182.881855404318,28.9826429876648,42.7052212280834,340.436798027097,913.881796732647,1307.85628478068,608.302643457996,98.8411026104954,-168.390533910486,62.458284714494,105.932249195991, , , , , , , , , , , , , , , , , , , , , , , , , , , , , , , , , , , , , , , , , , , , , , , , , , , , , , , , , , , , ,
160.917473334789,191.47050795778,30.5530346229915,39.1004748497378,345.13608031812,931.673717887271,1338.23339350304,629.119407562467,108.24702314571,-176.193990646285,65.1822193558987,111.011771290386, , , , , , , , , , , , , , , , , , , , , , , , , , , , , , , , , , , , , , , , , , , , , , , , , , , , , , , , , , , , ,
168.505521203098,200.052918530371,31.5473973272729,34.9872839248021,349.897877900515,949.598354826711,1369.05255078182,652.101528740381,117.302327859228,-184.279219866735,68.4790619379127,115.800157928822, , , , , , , , , , , , , , , , , , , , , , , , , , , , , , , , , , , , , , , , , , , , , , , , , , , , , , , , , , , , ,
174.548529585932,208.69165303697,34.1431234510377,31.231718604192,354.741369393144,967.676601378247,1394.80619140264,673.553026081292,125.849968212309,-191.620091311451,70.202703067447,121.417388244004, , , , , , , , , , , , , , , , , , , , , , , , , , , , , , , , , , , , , , , , , , , , , , , , , , , , , , , , , , , , ,
180.482684318685,217.675074180703,37.1923898620177,26.7609857836606,359.674158913784,985.91668142672,1420.62647555282,694.893728359543,135.283150691061,-199.078879249694,71.6451472283335,127.43373202136, , , , , , , , , , , , , , , , , , , , , , , , , , , , , , , , , , , , , , , , , , , , , , , , , , , , , , , , , , , , ,
186.584932876577,226.239426282513,39.6544934059357,22.5206720076302,366.936597545843,1004.31308018444,1446.48782254957,718.061294506707,144.701819022323,-206.412179579545,73.4652197353205,132.946959844224, , , , , , , , , , , , , , , , , , , , , , , , , , , , , , , , , , , , , , , , , , , , , , , , , , , , , , , , , , , , ,
193.075396237287,235.049962743083,41.9745665057966,18.2399486703398,372.20309846236,1022.84666539281,1472.35804727373,739.156559713732,153.829186020055,-214.062679490185,75.550414865745,138.51226462444, , , , , , , , , , , , , , , , , , , , , , , , , , , , , , , , , , , , , , , , , , , , , , , , , , , , , , , , , , , , ,
199.152586981248,244.205704367579,45.0531173863316,14.0951415673191,377.329598300503,1041.48589110881,1498.20024392394,761.329183959875,163.057367984092,-221.679145674414,77.049734797458,144.629410876956, , , , , , , , , , , , , , , , , , , , , , , , , , , , , , , , , , , , , , , , , , , , , , , , , , , , , , , , , , , , ,
204.939533364011,252.997975111234,48.0584417472236,9.38684436312701,382.618639802792,1067.91876648543,1523.97501662761,784.654151527677,172.685692188558,-228.968754237623,78.4405458083934,150.528208429229, , , , , , , , , , , , , , , , , , , , , , , , , , , , , , , , , , , , , , , , , , , , , , , , , , , , , , , , , , , , ,
210.253318070531,261.954375808546,51.7010577380153,5.06367007088036,390.24585359325,1087.6674547631,1549.64280031737,804.880077250823,182.372821928111,-236.103846939539,79.2761301662579,156.827716773281, , , , , , , , , , , , , , , , , , , , , , , , , , , , , , , , , , , , , , , , , , , , , , , , , , , , , , , , , , , , ,
215.512652224282,271.171405929155,55.6587537048734,0.178298867973467,395.264054913158,1106.34535363139,1575.16607479814,828.306650951671,192.144294391877,-243.342029076718,79.926949259704,163.415079817014, , , , , , , , , , , , , , , , , , , , , , , , , , , , , , , , , , , , , , , , , , , , , , , , , , , , , , , , , , , , ,
221.655995135765,281.031670591237,59.375675455472,-4.76190232424517,400.160726656317,1126.34360265214,1600.51132451163,850.371739933971,202.027064017161,-251.343832863502,81.1401598401467,170.203673023355, , , , , , , , , , , , , , , , , , , , , , , , , , , , , , , , , , , , , , , , , , , , , , , , , , , , , , , , , , , , ,
227.316150993469,291.557069690897,64.2409186974274,-9.62331119295254,404.896697155078,1144.78118618077,1625.65062968496,872.353562600761,212.049670040501,-259.436610342183,81.5376161480208,177.898994194162, , , , , , , , , , , , , , , , , , , , , , , , , , , , , , , , , , , , , , , , , , , , , , , , , , , , , , , , , , , , ,
232.780836863737,302.522080443094,69.7412435793562,-14.4267898094446,409.439199631624,1163.02630860281,1650.56281363618,893.270060265997,222.013520658522,-267.651458653416,81.5197966421906,186.131662011225, , , , , , , , , , , , , , , , , , , , , , , , , , , , , , , , , , , , , , , , , , , , , , , , , , , , , , , , , , , , ,
238.375731496666,313.436443390988,75.0607118943217,-19.7075282061712,413.764191047425,1186.78957842579,1675.23411742867,916.929801308614,232.285862006379,-275.906087443827,81.657509801172,194.248577642655, , , , , , , , , , , , , , , , , , , , , , , , , , , , , , , , , , , , , , , , , , , , , , , , , , , , , , , , , , , , ,
244.195909400587,323.877832317769,79.6819229171827,-25.0092679079051,417.858104569493,1209.67705923191,1699.65840185693,938.317512694721,242.87206290831,-284.036870859178,82.2569932417019,201.779877617476, , , , , , , , , , , , , , , , , , , , , , , , , , , , , , , , , , , , , , , , , , , , , , , , , , , , , , , , , , , , ,
249.92743852265,335.842749412122,85.9153108894718,-30.7373919192139,421.71890436462,1230.64417471916,1727.1034548623,963.037684903547,253.70929590253,-292.885093967386,82.0060638165892,210.879030150797, , , , , , , , , , , , , , , , , , , , , , , , , , , , , , , , , , , , , , , , , , , , , , , , , , , , , , , , , , , , ,
255.915090196392,348.126903413564,92.2118132171727,-36.1110810076066,425.356317574264,1256.82882521407,1753.37260586276,985.042481800022,264.829107377377,-302.020996804978,81.8516384896095,220.169358315369, , , , , , , , , , , , , , , , , , , , , , , , , , , , , , , , , , , , , , , , , , , , , , , , , , , , , , , , , , , , ,
261.764593081028,359.233660325325,97.4690672442967,-41.5871531079407,428.791148178408,1283.0552278935,1783.20301920974,1007.54175212161,276.259392300953,-310.499126703177,82.1477629183656,228.351363784811, , , , , , , , , , , , , , , , , , , , , , , , , , , , , , , , , , , , , , , , , , , , , , , , , , , , , , , , , , , , ,
267.518517284733,369.714622707125,102.196105422392,-46.9440171906303,432.053644278173,1299.76662477214,1807.54963904661,1030.58936098923,288.006338760615,-318.61656999593,82.6612059311706,235.955364064759, , , , , , , , , , , , , , , , , , , , , , , , , , , , , , , , , , , , , , , , , , , , , , , , , , , , , , , , , , , , ,
273.349469676997,381.661148080893,108.311678403896,-52.2909698448883,435.180992865488,1316.26582170736,1830.86548177584,1054.22495805728,299.533195668712,-327.505308878946,82.5188956365507,244.986413242395, , , , , , , , , , , , , , , , , , , , , , , , , , , , , , , , , , , , , , , , , , , , , , , , , , , , , , , , , , , , ,
279.196019059691,393.285646467105,114.089627407414,-57.6875659225047,438.214134842145,1332.58601844667,1858.4088797017,1078.47018598735,311.958055989855,-336.240832763398,82.5531958261385,253.687636937259, , , , , , , , , , , , , , , , , , , , , , , , , , , , , , , , , , , , , , , , , , , , , , , , , , , , , , , , , , , , ,
285.064080073364,404.924904176779,119.860824103415,-62.9488838104803,456.121376222165,1348.76097091264,1881.38651223799,1103.32610849072,324.755769100763,-344.994492125072,82.6016279849745,262.392864140097, , , , , , , , , , , , , , , , , , , , , , , , , , , , , , , , , , , , , , , , , , , , , , , , , , , , , , , , , , , , ,
290.974478827142,417.595596234247,126.621117407106,-68.269774244206,464.920033301252,1364.82120206566,1904.20618419094,1128.77216540889,337.92522914268,-354.285037530695,82.1766807100181,272.108356820676, , , , , , , , , , , , , , , , , , , , , , , , , , , , , , , , , , , , , , , , , , , , , , , , , , , , , , , , , , , , ,
296.921749643418,428.602689827712,131.680940184294,-73.3553190774788,468.268080479615,1380.79057814921,1928.29918338057,1154.76678534003,351.213044352798,-362.762219735565,82.6204047295619,280.141815006003, , , , , , , , , , , , , , , , , , , , , , , , , , , , , , , , , , , , , , , , , , , , , , , , , , , , , , , , , , , , ,
302.943787406129,438.941789850699,135.99800244457,-78.3688876723232,472.385227015109,1397.98273792413,1957.08745944301,1181.24957630208,364.585966417007,-370.942788628414,83.4728924807796,287.469896147634, , , , , , , , , , , , , , , , , , , , , , , , , , , , , , , , , , , , , , , , , , , , , , , , , , , , , , , , , , , , ,
308.94986914438,449.190530512105,140.240661367725,-83.3439265267708,476.52821516164,1422.02166533445,1980.31208488041,1208.14481790987,378.784581726486,-379.070199828243,84.3546038883272,294.715595939915, , , , , , , , , , , , , , , , , , , , , , , , , , , , , , , , , , , , , , , , , , , , , , , , , , , , , , , , , , , , ,
315.026544609599,459.331430301535,144.304885691936,-88.1230247233693,479.74671368905,1447.46182150254,2010.13786378822,1235.36583417895,393.294032751924,-387.178987455567,85.3608294588311,301.818157996736, , , , , , , , , , , , , , , , , , , , , , , , , , , , , , , , , , , , , , , , , , , , , , , , , , , , , , , , , , , , ,
321.186868823296,469.456089551781,148.269220728486,-92.9168980248843,484.115613228741,1467.45937410198,2040.14025492231,1262.81975733319,408.080921919266,-395.321479187539,86.4588240474048,308.862655140134, , , , , , , , , , , , , , , , , , , , , , , , , , , , , , , , , , , , , , , , , , , , , , , , , , , , , , , , , , , , ,
327.636631205466,479.38501954722,151.748388341755,-97.5643962876851,488.028032241165,1488.40987687766,2064.93546055588,1290.41220435446,422.400670515824,-403.510825376343,87.9441214318556,315.566703944488, , , , , , , , , , , , , , , , , , , , , , , , , , , , , , , , , , , , , , , , , , , , , , , , , , , , , , , , , , , , ,
333.993043374835,489.230158307088,155.237114932253,-102.173901684666,491.552371923419,1513.60841171109,2091.22170150781,1318.05146774078,436.997592792535,-411.611600840962,89.3779642212911,322.23363661967, , , , , , , , , , , , , , , , , , , , , , , , , , , , , , , , , , , , , , , , , , , , , , , , , , , , , , , , , , , , ,
340.520680790855,498.960357716473,158.439676925619,-106.746885522014,495.682879002762,1534.83516523575,2113.04614268117,1345.65194474865,452.440134331324,-419.740519253664,91.040501932618,328.700017321046, , , , , , , , , , , , , , , , , , , , , , , , , , , , , , , , , , , , , , , , , , , , , , , , , , , , , , , , , , , , ,
346.938395601337,508.601336088288,161.662940486951,-111.446941580624,498.613382146203,1553.30209263541,2133.14319063964,1373.13666244959,467.871122166373,-427.769865844813,92.6377275571931,335.13213828762, , , , , , , , , , , , , , , , , , , , , , , , , , , , , , , , , , , , , , , , , , , , , , , , , , , , , , , , , , , , ,
353.649597501005,518.16097013588,164.511372634875,-116.207829946677,502.122348167882,1577.52409130278,2152.65310136826,1400.43887262876,483.176621410449,-435.905283818442,94.5691124330646,341.336171385378, , , , , , , , , , , , , , , , , , , , , , , , , , , , , , , , , , , , , , , , , , , , , , , , , , , , , , , , , , , , ,
359.941890347478,527.646924910227,167.705034562749,-121.15226514,504.769558334388,1595.56440425596,2179.06652283237,1427.50277854102,498.445741504494,-443.794407628853,96.1184278923643,347.675979736488, , , , , , , , , , , , , , , , , , , , , , , , , , , , , , , , , , , , , , , , , , , , , , , , , , , , , , , , , , , , ,
366.164530222616,537.0658042394,170.901274016784,-126.22635903393,507.205644233492,1608.84052103053,2202.35404850385,1454.28350922418,514.324838371342,-451.615167231008,97.6316281029155,353.983539128092, , , , , , , , , , , , , , , , , , , , , , , , , , , , , , , , , , , , , , , , , , , , , , , , , , , , , , , , , , , , ,
372.312718014574,546.422280772807,174.109562758233,-131.333660627052,509.075565426951,1624.41710960231,2223.3637800497,1480.74647470722,530.230696926905,-459.367499393691,99.1015776281707,360.26592176552, , , , , , , , , , , , , , , , , , , , , , , , , , , , , , , , , , , , , , , , , , , , , , , , , , , , , , , , , , , , ,
378.487824340906,555.718223399467,177.230399058561,-136.792933825452,510.377129484915,1636.90097726428,2239.85937745643,1506.86622748469,545.741487871563,-467.103023870187,100.628712641173,366.474311229014, , , , , , , , , , , , , , , , , , , , , , , , , , , , , , , , , , , , , , , , , , , , , , , , , , , , , , , , , , , , ,
384.411625700961,564.951874877689,180.540249176728,-142.358923087553,511.109919723426,1647.92187743229,2255.45330594652,1532.62494140644,561.4509351981,-474.681750289325,101.935688262116,372.746062027209, , , , , , , , , , , , , , , , , , , , , , , , , , , , , , , , , , , , , , , , , , , , , , , , , , , , , , , , , , , , ,
390.015347482621,574.117161005558,184.101813522936,-148.034664155538,511.192509780756,1658.01919088905,2270.09662491457,1558.01061311414,576.779038812387,-482.06625424409,102.956766979842,379.109487264247, , , , , , , , , , , , , , , , , , , , , , , , , , , , , , , , , , , , , , , , , , , , , , , , , , , , , , , , , , , , ,
395.35419656164,583.203229692251,187.849033130612,-153.896448625784,510.715143839684,1667.11718226036,2283.74584504005,1583.01509924798,592.04826990947,-489.278713126946,103.752581715514,385.526131411431, , , , , , , , , , , , , , , , , , , , , , , , , , , , , , , , , , , , , , , , , , , , , , , , , , , , , , , , , , , , ,
400.388582747713,592.194321875263,191.805739127549,-159.925531245235,509.663876612045,1675.14900148282,2296.36245004776,1607.63212348324,607.240236895794,-496.291452311488,104.291421810082,392.000030501406, , , , , , , , , , , , , , , , , , , , , , , , , , , , , , , , , , , , , , , , , , , , , , , , , , , , , , , , , , , , ,
405.085248539657,601.070060142678,195.984811603021,-166.096487734431,511.35047119667,1682.05794828391,2307.91215416238,1631.85540844807,622.339967673384,-503.077654341168,104.550218468318,398.527435872849, , , , , , , , , , , , , , , , , , , , , , , , , , , , , , , , , , , , , , , , , , , , , , , , , , , , , , , , , , , , ,
409.419557059327,609.806199239843,200.386642180517,-172.379230980951,510.041332533802,1687.79826690679,2318.3640374521,1655.67708799807,637.335574783034,-509.612878149585,104.516457439405,405.09642071018, , , , , , , , , , , , , , , , , , , , , , , , , , , , , , , , , , , , , , , , , , , , , , , , , , , , , , , , , , , , ,
413.37753393654,618.375820458102,204.998286521562,-178.741234918473,523.943947626669,1694.38386424115,2327.68968685198,1679.08652350739,652.21784540798,-515.876677197322,104.189623707489,411.687053489832, , , , , , , , , , , , , , , , , , , , , , , , , , , , , , , , , , , , , , , , , , , , , , , , , , , , , , , , , , , , ,
416.957519993876,626.750887866492,209.793367872616,-185.149763487092,529.366677382611,1707.4251279225,2335.86243228993,1702.06959449667,666.97979846333,-521.854203930184,103.58207606063,418.272127869554, , , , , , , , , , , , , , , , , , , , , , , , , , , , , , , , , , , , , , , , , , , , , , , , , , , , , , , , , , , , ,
420.171296990598,634.904037882272,214.732740891675,-191.573921020279,534.013144362083,1717.12084962014,2342.85672734053,1724.60848364898,681.61622552594,-527.537667436435,102.719278049461,424.818389386973, , , , , , , , , , , , , , , , , , , , , , , , , , , , , , , , , , , , , , , , , , , , , , , , , , , , , , , , , , , , ,
423.044552613026,642.810449089415,219.76589647639,-197.986365947591,541.223935760777,1719.94233688629,2348.64770344083,1746.68194596445,696.123219998509,-532.927500851221,101.639328068318,431.288172782903, , , , , , , , , , , , , , , , , , , , , , , , , , , , , , , , , , , , , , , , , , , , , , , , , , , , , , , , , , , , ,
425.61655083019,650.44962696317,224.83307613298,-204.364559684905,536.289046182713,1729.03617355248,2353.21093194191,1768.26603896599,710.497704803898,-538.03308889668,100.391737348605,437.641351548075, , , , , , , , , , , , , , , , , , , , , , , , , , , , , , , , , , , , , , , , , , , , , , , , , , , , , , , , , , , , ,
427.938888505598,657.806931797287,229.868043291689,-210.69146405374,536.10225605615,1735.15707015271,2356.52244265249,1789.33527927925,724.736988098823,-542.872910151442,99.0354226069543,443.837487544488, , , , , , , , , , , , , , , , , , , , , , , , , , , , , , , , , , , , , , , , , , , , , , , , , , , , , , , , , , , , ,
430.073278430721,664.874683702251,234.801405271531,-216.95566119112,546.535314757785,1733.9544699352,2358.55904287136,1809.86416412814,738.838392101412,-547.473981066486,97.635936579595,449.838044486891, , , , , , , , , , , , , , , , , , , , , , , , , , , , , , , , , , , , , , , , , , , , , , , , , , , , , , , , , , , , ,
432.088409520634,671.652704810582,239.564295289948,-223.15094357237,552.124150481511,1739.26459437138,2359.298942731,1829.82894930486,752.798994819485,-551.870557165608,96.262057115343,455.608500050265, , , , , , , , , , , , , , , , , , , , , , , , , , , , , , , , , , , , , , , , , , , , , , , , , , , , , , , , , , , , ,
434.056063772606,678.14820396951,244.092140196904,-229.275486442564,548.954556184899,1741.52408029177,2358.72263474954,1849.20951873542,766.61549953142,-556.102133871059,94.981961787851,461.120172083207, , , , , , , , , , , , , , , , , , , , , , , , , , , , , , , , , , , , , , , , , , , , , , , , , , , , , , , , , , , , ,
436.046769147477,684.374964817436,248.328195669959,-235.330749214914,549.919612711102,1737.04140761507,2356.81392545832,1867.99113476863,780.284221613798,-560.210866982457,93.8592867387593,466.351580243697, , , , , , , , , , , , , , , , , , , , , , , , , , , , , , , , , , , , , , , , , , , , , , , , , , , , , , , , , , , , ,
438.125316669984,690.351864245662,252.226547575678,-241.320252986828,548.777793422017,1739.0255877552,2353.56099163979,1886.16583826399,793.801172061297,-564.238590457823,92.9493845471525,471.28920591067, , , , , , , , , , , , , , , , , , , , , , , , , , , , , , , , , , , , , , , , , , , , , , , , , , , , , , , , , , , , ,
440.409727382359,696.100832128989,255.69110474663,-247.248363850906,554.835733064689,1736.73405359551,2348.95733108692,1903.73327619808,807.162218439871,-568.255279755675,92.3593113178647,475.89596843781, , , , , , , , , , , , , , , , , , , , , , , , , , , , , , , , , , , , , , , , , , , , , , , , , , , , , , , , , , , , ,
443.131015350707,701.644458426644,258.513443075937,-253.119195033566,559.689850920077,1730.43826554428,2343.00248562666,1920.70076576653,820.363300835477,-572.387736888676,92.3087861373847,480.078950751291, , , , , , , , , , , , , , , , , , , , , , , , , , , , , , , , , , , , , , , , , , , , , , , , , , , , , , , , , , , , ,
446.178336952819,707.003528623473,260.825191670655,-258.935730735512,555.256517643928,1729.8312116572,2344.43154889391,1937.08245216301,833.400660081754,-576.590932788146,92.676572641082,483.914360147064, , , , , , , , , , , , , , , , , , , , , , , , , , , , , , , , , , , , , , , , , , , , , , , , , , , , , , , , , , , , ,
449.005078815764,712.194783703934,263.18970488817,-264.699261963266,545.538950465326,1721.32796740575,2341.45278777344,1952.89748233549,846.271004196331,-580.599931259849,92.9076869637968,487.692244296052, , , , , , , , , , , , , , , , , , , , , , , , , , , , , , , , , , , , , , , , , , , , , , , , , , , , , , , , , , , , ,
452.135192636351,717.229140936865,265.093948300514,-270.4854734545,535.408745880189,1708.44749617239,2333.64496438498,1968.16720382632,858.971520132159,-584.682166786608,93.5206221679185,491.161544618689, , , , , , , , , , , , , , , , , , , , , , , , , , , , , , , , , , , , , , , , , , , , , , , , , , , , , , , , , , , , ,
455.331726049454,722.110499142464,266.77877309301,-276.350326182735,524.891335414824,1694.54865680398,2323.10695528173,1982.91150745952,871.912508760872,-588.721112595959,94.2764764782219,494.444636117737, , , , , , , , , , , , , , , , , , , , , , , , , , , , , , , , , , , , , , , , , , , , , , , , , , , , , , , , , , , , ,
458.663170460606,726.835129967613,268.171959507007,-282.058786797713,514.014976562797,1679.64910021389,2318.74979960433,1997.14454930417,884.619770143754,-592.74915021411,95.2456054767994,497.50354473731, , , , , , , , , , , , , , , , , , , , , , , , , , , , , , , , , , , , , , , , , , , , , , , , , , , , , , , , , , , , ,
462.03840864312,731.391559742211,269.353151099091,-287.650470307526,502.809031067257,1663.76513707489,2311.00639326038,2010.87017946298,897.102231242238,-596.714984192666,96.3426287720146,500.372355420651, , , , , , , , , , , , , , , , , , , , , , , , , , , , , , , , , , , , , , , , , , , , , , , , , , , , , , , , , , , , ,
465.660587015095,735.760789641397,270.100202626302,-293.213089132058,491.30175860141,1646.91064160395,2297.7519877626,2024.07745095204,909.370989380036,-600.710688328246,97.7801921943964,502.93049613385, , , , , , , , , , , , , , , , , , , , , , , , , , , , , , , , , , , , , , , , , , , , , , , , , , , , , , , , , , , , ,
468.972797113802,739.91668825501,270.943891141208,-298.627122134834,479.517832766244,1629.09563372937,2287.62561680597,2036.73658643998,921.43678837309,-604.444742684406,99.0144529862973,505.430289698109, , , , , , , , , , , , , , , , , , , , , , , , , , , , , , , , , , , , , , , , , , , , , , , , , , , , , , , , , , , , ,
472.060386628813,743.826420336018,271.766033707205,-303.997031488061,467.475838367225,1610.32465416004,2270.24480975689,2048.79575982985,933.307133801886,-607.943403482416,100.147176460804,507.796227021611, , , , , , , , , , , , , , , , , , , , , , , , , , , , , , , , , , , , , , , , , , , , , , , , , , , , , , , , , , , , ,
474.905677856284,747.450845932108,272.545168075824,-309.357676192426,455.186029844597,1590.59509760499,2251.65362719673,2060.17900830565,944.728528189119,-611.178261894196,101.18025489023,509.998007003966, , , , , , , , , , , , , , , , , , , , , , , , , , , , , , , , , , , , , , , , , , , , , , , , , , , , , , , , , , , , ,
477.399115894199,750.744922762993,273.345806868794,-314.598939229864,442.64862927626,1569.89572316108,2231.82835400701,2070.78552349808,956.080063807881,-614.072019328596,102.026654512703,512.045364815893, , , , , , , , , , , , , , , , , , , , , , , , , , , , , , , , , , , , , , , , , , , , , , , , , , , , , , , , , , , , ,
480.00443533772,753.65824092889,273.65380559117,-320.000433885644,429.852927587797,1548.20561803912,2210.72882381091,2080.49047576454,966.951481643993,-616.831338133305,103.175314873275,513.65602326003, , , , , , , , , , , , , , , , , , , , , , , , , , , , , , , , , , , , , , , , , , , , , , , , , , , , , , , , , , , , ,
481.6348788178,756.135871153499,274.500992335698,-325.160217062376,416.77742216539,1525.49392996397,2188.29872833069,2089.14741079407,977.503701231386,-618.88537498565,103.566943241051,515.318431744599, , , , , , , , , , , , , , , , , , , , , , , , , , , , , , , , , , , , , , , , , , , , , , , , , , , , , , , , , , , , ,
482.765318698038,758.119687399983,275.354368701945,-330.360590374697,403.391164217432,1501.72066911997,2164.46755498807,2096.59213706008,987.76963030169,-620.44250304901,103.705474998046,516.737028050964, , , , , , , , , , , , , , , , , , , , , , , , , , , , , , , , , , , , , , , , , , , , , , , , , , , , , , , , , , , , ,
483.360513126416,759.550236191686,276.18972306527,-335.604907301141,389.656382590308,1476.8387863217,2139.15418158893,2102.64790609865,997.811802025485,-621.455374659051,103.585395030573,517.869979628478, , , , , , , , , , , , , , , , , , , , , , , , , , , , , , , , , , , , , , , , , , , , , , , , , , , , , , , , , , , , ,
483.757915698005,760.3691014416,276.611185743596,-340.801152022839,375.532292043967,1450.79756523544,2112.27196300302,2107.13157733933,1007.40514710879,-622.063508569803,103.573364977204,518.490143592598, , , , , , , , , , , , , , , , , , , , , , , , , , , , , , , , , , , , , , , , , , , , , , , , , , , , , , , , , , , , ,
483.589887005042,760.521594441139,276.931707436097,-345.993358333389,360.979807814142,1423.54716264221,2083.73495129874,2109.86036347956,1016.48197621718,-622.05574072309,103.329089784472,518.726650938618, , , , , , , , , , , , , , , , , , , , , , , , , , , , , , , , , , , , , , , , , , , , , , , , , , , , , , , , , , , , ,
482.563993931652,759.959511170483,277.395517238831,-351.217225556191,345.966726732062,1395.04394929175,2053.46474091293,2110.65869578717,1024.9666538465,-621.261752551068,102.58423834641,518.677514204657, , , , , , , , , , , , , , , , , , , , , , , , , , , , , , , , , , , , , , , , , , , , , , , , , , , , , , , , , , , , ,
481.085036490691,758.643659703607,277.558623212917,-356.55229601518,330.472846690286,1365.25619042701,2021.39736380913,2109.36475479468,1032.14824004161,-619.864348097149,101.763206638887,518.101141458262, , , , , , , , , , , , , , , , , , , , , , , , , , , , , , , , , , , , , , , , , , , , , , , , , , , , , , , , , , , , ,
479.082000983008,756.545879416417,277.463878433409,-362.045111875296,314.494493496194,1334.1695693885,1987.48968291116,2105.83627629178,1038.83821447378,-617.813940199713,100.809061274799,517.004878924913, , , , , , , , , , , , , , , , , , , , , , , , , , , , , , , , , , , , , , , , , , , , , , , , , , , , , , , , , , , , ,
476.834558960568,753.650344671088,276.815785710519,-367.182442414233,298.047985211414,1301.79207686838,1951.72481209492,2099.95533454354,1044.9353365417,-615.242451815828,100.009386625024,515.233065190804, , , , , , , , , , , , , , , , , , , , , , , , , , , , , , , , , , , , , , , , , , , , , , , , , , , , , , , , , , , , ,
474.471181212345,749.954039496289,275.482858283944,-372.142899503738,281.171662398105,1268.15783459164,1914.11618422118,2091.63189460072,1049.34545212906,-612.212610354317,99.4941614642004,512.718448890117, , , , , , , , , , , , , , , , , , , , , , , , , , , , , , , , , , , , , , , , , , , , , , , , , , , , , , , , , , , , ,
471.403984233849,745.466372469203,274.062388235355,-377.279093979358,263.926240169878,1233.32948789562,1874.70997705133,2080.80600406393,1053.07788690137,-608.435178351526,98.6707979992469,509.764380352279, , , , , , , , , , , , , , , , , , , , , , , , , , , , , , , , , , , , , , , , , , , , , , , , , , , , , , , , , , , , ,
467.91826564983,740.207958590363,272.289692940534,-381.825081078473,246.393400222663,1197.39889950208,1833.58570399856,2067.44856962679,1055.13536748561,-604.063112120097,97.814286354648,506.248825765448, , , , , , , , , , , , , , , , , , , , , , , , , , , , , , , , , , , , , , , , , , , , , , , , , , , , , , , , , , , , ,
464.288849721822,734.20864020741,269.919790485588,-386.297432007014,228.672734619928,1160.48601690629,1790.8549028221,2051.56074625909,1056.66211856503,-599.248744964616,97.1845296181169,502.064215346499, , , , , , , , , , , , , , , , , , , , , , , , , , , , , , , , , , , , , , , , , , , , , , , , , , , , , , , , , , , , ,
460.274940106478,727.504875983585,267.229935877107,-390.184511506959,210.877346726288,1122.73595291019,1746.65800848196,2034.0027814035,1056.25397247254,-593.889908045031,96.5225021146852,497.367405930346, , , , , , , , , , , , , , , , , , , , , , , , , , , , , , , , , , , , , , , , , , , , , , , , , , , , , , , , , , , , ,
456.805036285944,720.136705951501,263.331669665558,-393.558384099801,193.12855703063,1084.31447562572,1701.15964781905,2015.48221055152,1054.39962102962,-588.470871118723,96.7366833101931,491.734187808529, , , , , , , , , , , , , , , , , , , , , , , , , , , , , , , , , , , , , , , , , , , , , , , , , , , , , , , , , , , , ,
452.334647515025,712.144583874585,259.80993635956,-396.602773958666,175.550217847712,1045.40222288771,1654.54271235933,1992.27831736144,1051.94582799005,-582.239615694805,96.2623555777325,485.977260117072, , , , , , , , , , , , , , , , , , , , , , , , , , , , , , , , , , , , , , , , , , , , , , , , , , , , , , , , , , , , ,
447.734722735932,703.566417964465,255.831695228533,-398.84570051257,158.263121136427,1006.18803943761,1607.00164182763,1966.7992227762,1048.10210911643,-575.650570350199,95.9515137536995,479.699056596499, , , , , , , , , , , , , , , , , , , , , , , , , , , , , , , , , , , , , , , , , , , , , , , , , , , , , , , , , , , , ,
442.961857593698,694.435146947772,251.473289354074,-400.547083709563,141.379925811031,966.861899243045,1558.73539360431,1939.15206369809,1042.06589043302,-568.698502270735,95.7442841198122,472.954218150923, , , , , , , , , , , , , , , , , , , , , , , , , , , , , , , , , , , , , , , , , , , , , , , , , , , , , , , , , , , , ,
437.792835411646,684.777098526757,246.984263115111,-401.429556930099,125.000958068562,927.607916216952,1509.94058687998,1909.45275510714,1034.67407036991,-561.284966969202,95.4042861482672,465.880680820934, , , , , , , , , , , , , , , , , , , , , , , , , , , , , , , , , , , , , , , , , , , , , , , , , , , , , , , , , , , , ,
432.942686183569,674.611258117724,241.668571934155,-401.59897060193,109.211144774522,888.597939909815,1460.80528476244,1877.82210744389,1025.93622740126,-553.776972150647,95.637057124707,458.139915025939, , , , , , , , , , , , , , , , , , , , , , , , , , , , , , , , , , , , , , , , , , , , , , , , , , , , , , , , , , , , ,
