-112.410540927368,-103.981887248142,8.42865367922608,108.10779146833,-7.22748563169811,-79.0166195139625,-146.441218933093,-168.611306064199,-131.433319762393,108.196214087755,-60.4195973032971,-47.7766167844581,301,340,339,301,340,339,301,289,339,340,339,339,333,345,439,244,548,513,333,500,499,441,523,550,588,621,579,523,608,615,587,621,623,683,592,621,956,979,886,850,842,864,933,984,1000,848,952,935,701,740,739,701,740,739,701,689,739,740,739,739,
-112.410540927368,-103.981887248142,8.42865367922608,108.10779146833,-7.22748563169811,-79.0166195139625,-146.441218933093,-168.611306064199,-131.433319762393,108.196214087755,-60.4195973032971,-47.7766167844581,1180,1220,1218,1180,1220,1218,1180,1168,1218,1220,1218,1218,397,429,503,374,568,556,408,524,520,476,580,587,602,637,586,642,612,631,635,636,638,717,612,638,977,1016,948,933,942,983,999,1010,1014,990,963,1020,1580,1620,1618,1580,1620,1618,1580,1568,1618,1620,1618,1618,
-112.410540927368,-103.981887248142,8.42865367922608,108.10779146833,-7.22748563169811,-79.0166195139625,-146.441218933093,-168.611306064199,-131.433319762393,108.196214087755,-60.4195973032971,-47.7766167844581,2066,2104,2103,2066,2104,2103,2066,2053,2103,2104,2103,2103,528,572,570,1246,590,612,560,567,566,509,1424,596,699,712,710,715,665,688,700,739,738,795,688,711,1001,1049,1018,1012,1032,1037,1039,1034,1027,1094,976,1066,2471,2509,2508,2471,2509,2508,2471,2458,2508,2509,2508,2508,
-112.410540927368,-103.981887248142,8.42865367922608,108.10779146833,-7.22748563169811,-79.0166195139625,-146.441218933093,-168.611306064199,-131.433319762393,108.196214087755,-60.4195973032971,-47.7766167844581,2958,2996,2996,2958,2996,2996,2958,2945,2996,2996,2996,2996,1276,1321,1457,1335,1289,1392,1244,1348,1378,636,1441,1406,773,770,760,771,722,730,771,803,839,847,762,763,1874,1864,1744,1821,1768,1743,1813,1868,1813,1649,1887,1831,3366,3404,3403,3366,3404,3403,3366,3352,3403,3404,3403,3403,
-112.410540927368,-103.981887248142,8.42865367922608,108.10779146833,-7.22748563169811,-79.0166195139625,-146.441218933093,-168.611306064199,-131.433319762393,108.196214087755,-60.4195973032971,-47.7766167844581,3838,3880,3878,3838,3880,3878,3838,3824,3878,3880,3878,3878,1298,1406,1517,1377,1436,1463,1290,1372,1477,1479,1491,1451,1465,784,803,1493,782,794,797,1500,880,1576,1519,815,1891,1896,1823,1904,1870,1864,1879,1890,1895,1803,1888,1900,4231,4276,4274,4231,4276,4274,4231,4216,4274,4276,4274,4274,
-112.410540927368,-103.981887248142,8.42865367922608,108.10779146833,-7.22748563169811,-79.0166195139625,-146.441218933093,-168.611306064199,-131.433319762393,108.196214087755,-60.4195973032971,-47.7766167844581,4707,4754,4752,4707,4754,4752,4707,4692,4752,4754,4752,4752,1439,1452,1556,2194,1484,1491,1439,1447,2167,1515,2149,2237,1475,1499,1567,1613,1501,1493,1454,1514,1501,1593,1535,1500,1913,1932,1908,1982,1957,1919,1921,1913,1925,1894,1971,1947,5103,5151,5149,5103,5151,5149,5103,5089,5149,5151,5149,5149,
-112.410540927368,-103.981887248142,8.42865367922608,108.10779146833,-7.22748563169811,-79.0166195139625,-146.441218933093,-168.611306064199,-131.433319762393,108.196214087755,-60.4195973032971,-47.7766167844581,5585,5633,5631,5585,5633,5631,5585,5572,5631,5633,5631,5631,2156,2238,2249,2222,2110,2309,2097,2136,2192,1548,2311,2273,1513,1516,1577,1685,1546,1510,1513,1619,1516,1614,1611,1516,2764,2752,2629,2577,2621,2628,2695,2759,2772,2539,2769,2725,5987,6035,6033,5987,6035,6033,5987,5974,6033,6035,6033,6033,
-112.410540927368,-103.981887248142,8.42865367922608,108.10779146833,-7.22748563169811,-79.0166195139625,-146.441218933093,-168.611306064199,-131.433319762393,108.196214087755,-60.4195973032971,-47.7766167844581,6470,6518,6516,6470,6518,6516,6470,6456,6516,6518,6516,6516,2325,2272,2249,2261,2160,2353,2325,2155,2330,2372,2344,2336,1692,1592,1590,1742,1591,1567,1579,1744,1617,1648,1684,1591,2783,2784,2710,2670,2712,2752,2769,2779,2784,2682,2782,2789,6872,6920,6918,6872,6920,6918,6872,6859,6918,6920,6918,6918,
-112.410540927368,-103.981887248142,8.42865367922608,108.10779146833,-56.4553048179685,-112.654588476624,-146.441218933093,-246.545057311533,-178.417232033969,108.196214087755,-60.4195973032971,-47.7766167844581,7358,7404,7402,7358,7404,7402,7358,7344,7402,7404,7402,7402,3118,2337,3171,2984,2337,2376,3086,2363,3092,2406,3105,3032,2352,1678,1639,2267,1648,1609,1651,1747,1688,2466,2362,1639,2802,2808,2793,2752,2797,2809,2810,2800,2795,2783,2795,2845,7763,7808,7806,7763,7808,7806,7763,7748,7806,7808,7806,7806,
-112.410540927368,-103.981887248142,8.42865367922608,90.8608925268269,-124.294509393758,-141.79752998115,-200.043878775523,-334.004897842546,-264.075662216386,108.196214087755,-60.4195973032971,-47.7766167844581,8229,8274,8272,8229,8274,8272,8229,8214,8272,8274,8272,8272,3147,3033,3203,3025,3213,3201,3113,3092,3115,2433,3206,3139,2364,1680,1660,2379,1708,1675,1678,2392,2391,2483,2501,1669,3660,3633,3475,3501,3512,3520,3597,3651,3669,3431,3597,2896,8615,8660,8658,8615,8660,8658,8615,8600,8658,8660,8658,8658,
-112.410540927368,-52.1812648757352,60.2292760516325,82.9193042770838,-170.894636018182,-176.36994133349,-248.952838805056,-392.032726966289,-320.150099722467,82.2959029015514,-86.3199084895003,4.02400558794831,9076,9129,9128,9076,9129,9128,9076,9060,9128,9129,9128,9128,3217,3142,3223,3902,3236,3242,3217,3115,3255,3033,3236,3227,2404,2389,2324,2453,2346,2384,2347,2406,2404,2485,2573,2390,3678,3669,3567,3597,3606,3649,3664,3675,3679,3557,3677,3573,9456,9518,9519,9456,9518,9519,9456,9441,9519,9518,9519,9519,
-117.615742987706,-23.2505069400215,94.3652360476846,83.2144352627466,-178.431958885957,-194.430790617085,-280.881577962758,-423.333455350198,-350.377649755986,70.4331249638637,-105.990489517696,35.5573645538312,9998,9998,9998,9998,9998,9998,9998,9998,9998,9998,9998,9998,4114,3228,4085,3946,3260,3268,3870,3255,3894,3143,4080,4091,2579,2406,2354,2508,2389,2400,2403,2508,2507,2538,3261,2407,3694,3703,3639,3679,3693,3701,3704,3694,3688,3675,3723,3619, , , , , , , , , , , , ,
-119.701108018354,-16.1115493122354,103.589558706119,90.4948819925104,-204.718249210595,-195.749862951157,-283.449359379184,-432.732063281698,-364.27370280995,67.9063286652947,-111.645333362237,43.7390046969413, , , , , , , , , , , , ,4120,4096,4115,4001,3911,3920,3978,4072,4105,3228,4103,4116,3245,2482,2480,3184,2434,2457,2470,2571,2655,3266,3273,2481,4531,4528,4389,4381,4390,4399,4457,4517,4553,4336,4466,3706, , , , , , , , , , , , ,
-119.463330233814,-26.6721742545144,92.7911559793002,103.409294701761,-219.452030450811,-205.339144712703,-294.382065948156,-439.720777942609,-355.323221395025,73.0677522441644,-106.127243106558,33.0594908623925, , , , , , , , , , , , ,4161,4117,4137,4803,3951,3977,4001,4120,4816,3912,4147,4170,3258,2538,2527,3305,2491,2500,2540,3286,2659,3300,3320,2527,4547,4553,4469,4463,4474,4517,4527,4541,4554,4469,4539,4444, , , , , , , , , , , , ,
-117.674275789065,-47.4511448438864,70.2231309451792,108.10779146833,-196.203852132149,-208.435034074227,-295.386966766025,-415.435652319166,-332.318159566983,82.5627103164759,-93.9487033671226,11.3859930506461, , , , , , , , , , , , ,4998,4135,4848,4849,3978,4083,4927,4171,4849,4043,4948,4772,3299,2567,2547,3378,2555,2585,2567,3300,3286,3376,3474,2559,4562,4577,4526,4554,4564,4568,4569,4567,4617,4584,4563,4477, , , , , , , , , , , , ,
-113.940706132951,-78.1033536383122,35.8373524946389,108.10779146833,-190.073712873633,-197.394137289832,-288.368717477533,-381.499976805767,-300.695447564802,96.0220298856316,-74.8890293137952,-21.133000571837, , , , , , , , , , , , ,5004,4843,4879,4870,4811,4820,4966,4818,4979,4755,4985,4832,3468,3282,3237,3435,3272,3279,3240,3403,3299,3430,4166,3283,5406,5414,5262,5250,5258,5267,5332,5392,5419,5176,5400,4588, , , , , , , , , , , , ,
-112.410540927368,-103.981887248142,8.42865367922608,108.10779146833,-183.409775168268,-184.007503807095,-275.309505969604,-342.436714415223,-263.311757052008,108.196214087755,-60.4195973032971,-47.7766167844581, , , , , , , , , , , , ,5030,4877,4915,5649,4846,4923,5745,4846,5759,4981,5015,4871,4184,3300,3255,4045,3328,3295,3298,3505,3402,4047,4184,3301,5423,5431,5347,5337,5351,5391,5403,5419,5427,5332,5415,5446, , , , , , , , , , , , ,
-112.410540927368,-103.981887248142,8.42865367922608,108.10779146833,-172.164226616957,-176.820089246229,-253.850061344199,-300.875417656696,-224.378991354988,108.196214087755,-60.4195973032971,-47.7766167844581, , , , , , , , , , , , ,5875,4910,5641,5666,4878,4951,5787,4981,5779,5902,5833,5783,4264,3374,3281,4170,3384,3351,3365,3527,3542,4054,4262,3374,5439,5446,5382,5432,5441,5441,5443,5446,5434,5428,5431,5463, , , , , , , , , , , , ,
-112.410540927368,-103.981887248142,8.42865367922608,108.10779146833,-134.354795782978,-167.688420139271,-230.388884182399,-260.298603061816,-185.547228482211,108.196214087755,-60.4195973032971,-47.7766167844581, , , , , , , , , , , , ,5887,5658,6708,5780,5626,5841,5844,5778,5890,5923,5870,5825,4335,3432,3327,4239,3448,3395,3434,4190,3551,4197,4341,3422,6289,6300,6169,6069,6137,6238,6224,6232,6302,6062,6286,5480, , , , , , , , , , , , ,
-112.410540927368,-103.981887248142,8.42865367922608,108.10779146833,-98.2121210328994,-157.536640006249,-209.097281525911,-222.690561207275,-149.803490502259,108.196214087755,-60.4195973032971,-47.7766167844581, , , , , , , , , , , , ,5908,5785,6755,6636,5725,5922,6699,5830,6631,5988,5900,5863,5057,3457,3376,4304,4072,3458,3509,4275,4154,4270,5039,3483,6306,6315,6230,6222,6239,6335,6288,6258,6314,6210,6304,6257, , , , , , , , , , , , ,
-112.410540927368,-130.397503608817,-17.9869626814493,108.10779146833,-64.6397099798699,-147.172758917162,-189.898842448369,-190.260908547786,-131.433319762393,121.404022268092,-47.2117891229594,-74.1922331451335, , , , , , , , , , , , ,6598,5821,6807,6665,6723,6689,6729,5877,6743,6788,6717,6720,5139,4148,3418,4919,4192,4106,4098,4340,4165,4335,5058,4183,6328,6330,6290,6316,6326,6386,6328,6286,6329,6312,6328,6270, , , , , , , , , , , , ,
-112.410540927368,-156.756215691699,-44.3456747643313,108.10779146833,-34.2169618703324,-137.264907389234,-174.849727342576,-168.611306064199,-131.433319762393,134.583378309533,-34.0324330815184,-100.550945228015, , , , , , , , , , , , ,6629,6727,7594,7396,6746,6743,7454,6712,7498,6808,6747,6759,5210,4165,4149,5044,4251,4112,4163,5021,4273,5016,5137,4238,7179,7188,6324,6953,7025,7059,7109,7145,7119,6946,7169,6283, , , , , , , , , , , , ,
-112.410540927368,-175.449765567405,-63.0392246400374,108.10779146833,-7.22748563169811,-123.621310734794,-161.825092435173,-168.611306064199,-131.433319762393,143.930153247386,-24.6856581436654,-119.244495103722, , , , , , , , , , , , ,6729,6761,7647,7425,6768,7562,7486,6738,7551,6873,6784,6789,5941,4238,4166,5112,4315,4215,4230,5038,4346,5039,5208,4293,7194,7200,7071,7106,7125,7161,7173,7168,7199,7094,7183,7191, , , , , , , , , , , , ,
-112.410540927368,-189.193810185501,-76.7832692581337,108.10779146833,-7.22748563169811,-114.814807341094,-153.338708968382,-168.611306064199,-131.433319762393,150.802175556435,-17.8136358346172,-132.988539721818, , , , , , , , , , , , ,7518,6805,7693,8325,7611,7629,7617,6779,7661,7405,7613,7472,6023,4305,4192,5179,4937,4263,4283,5150,5023,5111,5928,4322,7206,7212,7115,7205,7212,7211,7212,7191,7223,7198,7201,7204, , , , , , , , , , , , ,
-112.410540927368,-196.296755731038,-83.8862148036705,108.10779146833,-7.22748563169811,-109.298590844897,-147.081109861356,-168.611306064199,-131.433319762393,154.353648329203,-14.2621630618488,-140.091485267355, , , , , , , , , , , , ,7566,7436,8322,8353,7637,8438,8293,7376,8368,7502,7635,7503,6149,4328,4219,5804,5065,4343,4306,5214,5039,5175,5946,4980,8070,8122,7146,7901,7913,7945,7985,8050,8071,7834,8005,7219, , , , , , , , , , , , ,
-112.410540927368,-198.627759155246,-86.2172182278782,108.10779146833,-7.22748563169811,-105.106356702378,-146.441218933093,-168.611306064199,-131.433319762393,155.519150041307,-13.096661349745,-142.422488691562, , , , , , , , , , , , ,7617,7537,8403,8392,7656,8499,8390,7488,8389,7663,7680,7539,6757,4960,4262,5928,5125,4976,4374,5901,5148,6001,6026,5018,8081,8123,7959,7996,8014,8049,8060,8078,8086,7980,8076,8095, , , , , , , , , , , , ,
-112.410540927368,-195.805165029946,-83.3946241025783,108.10779146833,-7.22748563169811,-102.250969823904,-146.441218933093,-168.611306064199,-131.433319762393,154.107852978657,-14.5079584123949,-139.599894566262, , , , , , , , , , , , ,8485,7567,9393,9077,8366,9288,8456,7635,8499,8275,8473,8336,6768,4990,4327,5997,5186,4984,4972,5987,5223,6029,6102,5069,8092,8207,8008,8095,8101,8100,8100,8103,8105,8084,8093,8096, , , , , , , , , , , , ,
-112.410540927368,-190.387272690344,-77.9767317629762,108.10779146833,-7.22748563169811,-100.662734971969,-146.441218933093,-168.611306064199,-131.433319762393,151.398906808856,-17.216904582196,-134.18200222666, , , , , , , , , , , , ,8514,8298,9415,9143,8438,9334,9140,8310,9160,8380,8495,8355,6806,5039,4935,6063,5835,5088,5036,6050,5912,6035,6807,5131,8914,8924,8058,8740,8749,8783,8840,8893,8917,8684,8855,8988, , , , , , , , , , , , ,
-112.410540927368,-182.203968814773,-69.7934278874049,108.10779146833,-7.22748563169811,-100.208314548812,-146.441218933093,-168.611306064199,-131.433319762393,147.30725487107,-21.3085565199816,-125.998698351089, , , , , , , , , , , , ,8552,8501,9444, ,8497,9387,9269,8388,9248,8501,8540,8467,6987,5110,4988,6689,5950,5137,5102,6811,5924,6061,6826,5201,8929,8938,8149,8844,8865,8900,8910,8924,8932,8813,8923,8999, , , , , , , , , , , , ,
-112.410540927368,-171.815236226729,-59.4046952993617,108.10779146833,-7.22748563169811,-100.709973543842,-148.40640540324,-168.611306064199,-131.433319762393,142.112888577049,-26.5029228140032,-115.609965763046, , , , , , , , , , , , ,9300,9145,9483, ,9348, ,9303,8473,9355,9130,9352,9297,7643,5181,5094,6814,6011,5205,5158,6897,6032,6886,6906,5225,8946,8947,8807,8946,8950,8950,8949,8955,8959,8934,8956,9006, , , , , , , , , , , , ,
-112.410540927368,-160.866776070641,-48.4562351432737,108.10779146833,-7.22748563169811,-101.964050510218,-151.512875191123,-168.611306064199,-131.433319762393,136.638658499005,-31.9771528920472,-104.661505606958, , , , , , , , , , , , ,9357,9292, , ,9364, , ,9156, ,9356,9391,9343,7655,5207,5170,6882,6070,5925,5181,6959,6101,6913,6978,5889,9757,9768,8860,9587,9640,9639,9683,9740,9761,9527,9745,9983, , , , , , , , , , , , ,
-112.410540927368,-149.74195807406,-37.3314171466927,108.10779146833,-7.22748563169811,-103.757782505152,-153.942833066906,-169.323114447141,-131.433319762393,131.076249500714,-37.5395618903377,-93.5366876103769, , , , , , , , , , , , ,9399, , , ,9388, , ,9269, , ,9419,9376,7696,5838,5255,6949,6781,5978,5205,7648,6794,6920,7697,5939,9772,9997,8894,9687,9739,9738,9752,9767,9777,9663,9814, , , , , , , , , , , , , ,
-115.272127797562,-140.50402440355,-25.2318966059878,113.50883164221,-7.22748563169811,-105.883828609184,-155.689132253659,-181.368687078564,-131.433319762393,127.888076100556,-45.0201155957873,-82.8679605047691, , , , , , , , , , , , , , , , , , , ,9319, , , , ,7878,5876,5792,7581,6835,6032,5862,7696,6809,6945,7713,6010,9785, ,9976,9764,9812,9785,9790,9792,9794,9776,9836, , , , , , , , , , , , , ,
-117.943258948908,-134.177532002253,-16.2342730533449,123.856125685508,-7.22748563169811,-108.152038602544,-159.265146751102,-192.437750721663,-136.35138155144,126.06039547558,-50.8544929477816,-75.2059025277992, , , , , , , , , , , , , , , , , , , , , , , , ,8569,5924,5871,7702,6897,6080,5921,7807,6917,7674,7795,6035, , , , , , , , , , , , , , , , , , , , , , , , ,
-121.259989224946,-129.453297977953,-8.19330875300667,130.600805212484,-7.22748563169811,-110.398205352832,-164.134310315663,-202.166060936665,-144.082419650617,125.356643601449,-56.5333402359698,-68.82330336548, , , , , , , , , , , , , , , , , , , , , , , , ,8648,5997,5948,7772,6955,6163,5986,7872,6982,7697,7873,6821, , , , , , , , , , , , , , , , , , , , , , , , ,
-125.000108951731,-126.434464152408,-1.43435520067688,137.215655041361,-7.22748563169811,-107.527409140982,-168.450339897668,-207.726528499571,-151.557544146609,125.717286552069,-61.7828768755272,-63.9344096765427, , , , , , , , , , , , , , , , , , , , , , , , ,8725,6070,6056,7840,7670,6789,6041,8504,7685,7771,8550,6886, , , , , , , , , , , , , , , , , , , , , , , , ,
-126.832537279809,-125.106974977326,1.72556230248282,144.962709426031,-7.22748563169811,-104.904760412596,-172.047606836376,-210.989068900815,-158.060239303349,125.969756128568,-64.2790497911461,-61.690706337422, , , , , , , , , , , , , , , , , , , , , , , , ,9411,6089,6133,8423,7685,6804,6066,8548,7698,7833,8568,6946, , , , , , , , , , , , , , , , , , , , , , , , ,
-128.834649539491,-125.360871041597,3.47377849789476,152.588410905155,-7.22748563169811,-106.179327838877,-174.831833816526,-213.473787358846,-161.557436597227,127.097760290544,-66.1542140186933,-60.9435462718513, , , , , , , , , , , , , , , , , , , , , , , , ,9491,6822,6818,8480,7724,6858,6092,8659,7805,8527,8646,6965, , , , , , , , , , , , , , , , , , , , , , , , ,
-130.102529941366,-127.013187108954,3.08934283241266,165.372886230075,8.27956518473817,-107.19451359178,-176.774024413562,-213.510604419467,-162.824480351399,128.55785852516,-66.5959363868897,-61.9619221382708, , , , , , , , , , , , , , , , , , , , , , , , ,9562,6885,6833,8553,7784,6906,6745,8707,7874,8549,8725,7603, , , , , , , , , , , , , , , , , , , , , , , , ,
-131.929874376374,-129.830790366707,2.09908400966757,173.83329568977,32.8562916797673,-107.93823236749,-177.901581327111,-213.949295622966,-164.305579801062,130.88033237154,-67.0144791930211,-63.8658531785199, , , , , , , , , , , , , , , , , , , , , , , , , ,6975,6941,8623,7844,6988,6806,9343,8539,8623,9441,7649, , , , , , , , , , , , , , , , , , , , , , , , ,
-134.943596349723,-133.551832660589,1.3917636891338,188.231900035495,55.7669263632863,-108.417687575738,-178.287596928543,-214.961361898474,-165.688279532163,134.247714505156,-68.1676800194285,-66.080034485728, , , , , , , , , , , , , , , , , , , , , , , , , ,7646,7067,8689,8522,7679,6871,9392,8549,8683,9458,7697, , , , , , , , , , , , , , , , , , , , , , , , ,
-135.643966554861,-137.904845868214,-2.26087931335288,197.176906231382,72.6747148852357,-108.655142628423,-178.039246461897,-215.368113949561,-166.533798659033,136.774406211538,-66.6915436207545,-70.082862590784, , , , , , , , , , , , , , , , , , , , , , , , , ,7685,7706,9261,8575,7694,6926,9501,8657,9370,9539,7773, , , , , , , , , , , , , , , , , , , , , , , , ,
-137.127246558278,-139.742018659,-2.61477210072254,207.570642250488,100.642872671539,-108.683497828817,-177.286112546479,-213.939749523616,-167.163778432616,138.434632608639,-67.2562372287779,-71.1783953798618, , , , , , , , , , , , , , , , , , , , , , , , , ,7731,7750,9320,8635,7747,6951,9549,8706,9391,9610,7833, , , , , , , , , , , , , , , , , , , , , , , , ,
-137.683654672929,-141.330610144244,-3.64695547131415,221.467526297938,120.5636091763,-98.7805266238704,-176.169123227395,-210.318502559896,-166.212859681544,139.507132408587,-67.0183496008079,-72.4887828077793, , , , , , , , , , , , , , , , , , , , , , , , , ,7806,7829,9395,8696,7796,6977, ,9385,9462, ,7889, , , , , , , , , , , , , , , , , , , , , , , , ,
-138.274859536611,-145.809804270421,-7.53494473380967,230.353003351236,137.358834786736,-88.8726115462701,-174.830615148609,-207.10477613203,-163.956980700262,142.042331903516,-65.3699574014009,-76.6723745021155, , , , , , , , , , , , , , , , , , , , , , , , , ,7874,7957,9464,9400,7877,7630, ,9393,9525, ,8511, , , , , , , , , , , , , , , , , , , , , , , , ,
-140.749249798655,-150.480873011093,-9.73162321243816,246.184268080796,166.783475905782,-79.0166195139625,-173.405867776686,-203.80235827973,-163.587834090154,145.615061404874,-65.5088132931087,-80.1062481117661, , , , , , , , , , , , , , , , , , , , , , , , , ,7900,8456,9532,9456,8529,7696, ,9499, , ,8556, , , , , , , , , , , , , , , , , , , , , , , , ,
-141.348738658882,-154.720982236513,-13.3722435776311,254.549558450747,182.82435682744,-79.0166195139625,-172.016312094564,-202.055700649716,-165.233120120721,148.034860447698,-63.9882475406257,-84.0466129070725, , , , , , , , , , , , , , , , , , , , , , , , , ,8506,8497, ,9515,8545,7762, ,9548, , ,8607, , , , , , , , , , , , , , , , , , , , , , , , ,
-143.425492193619,-158.422895802378,-14.997403608759,263.744862213174,200.010770612712,-79.0166195139625,-170.764501293541,-203.266583250054,-167.679592181682,150.924193997998,-64.2140442924302,-86.7101497055688, , , , , , , , , , , , , , , , , , , , , , , , , ,8549,8602, ,9577,8599,7815, , , , ,8681, , , , , , , , , , , , , , , , , , , , , , , , ,
-144.349954323117,-161.408662710694,-17.0587083875766,278.489496343957,225.358066868753,-79.0166195139625,-169.73084141688,-205.118192506136,-168.947119074161,152.879308516906,-63.6456229677707,-89.2336855491358, , , , , , , , , , , , , , , , , , , , , , , , , ,8623,8646, , ,8647,7839, , , , ,8741, , , , , , , , , , , , , , , , , , , , , , , , ,
-145.077070445723,-160.99336000905,-15.9162895633268,285.57171663179,239.700826217279,-69.6623507696877,-168.972015187641,-204.743875142952,-168.711454221138,153.035215227386,-64.5803904411982,-88.4548247861886, , , , , , , , , , , , , , , , , , , , , , , , , ,8689,8802, , ,8727,7866, , , , ,8762, , , , , , , , , , , , , , , , , , , , , , , , ,
-146.304034682191,-160.12998117332,-13.8259464911293,298.504103948649,260.870753209847,-56.5771939942914,-168.520982114853,-203.972996081233,-169.394901315305,153.217007927756,-66.2390440955311,-86.9779638322252, , , , , , , , , , , , , , , , , , , , , , , , , ,8703,9502, , ,9401,8481, , , , ,9429, , , , , , , , , , , , , , , , , , , , , , , , ,
-147.045727349803,-161.494250382967,-14.4485230331639,308.094487819489,277.735261458516,-47.4974414112146,-168.388384009238,-206.545975546498,-170.039427366392,154.269988866385,-66.2986021583199,-87.9713867080659, , , , , , , , , , , , , , , , , , , , , , , , , ,9299,9522, , ,9440,8549, , , , ,9461, , , , , , , , , , , , , , , , , , , , , , , , ,
-148.17622473469,-162.290116536675,-14.1138918019844,313.592545572646,290.186600599913,-32.9117420116203,-168.565116553981,-208.559157398395,-172.620127260457,155.233170635683,-67.0311664663533,-88.20200416933, , , , , , , , , , , , , , , , , , , , , , , , , ,9344,9701, , ,9489,8614, , , , ,9526, , , , , , , , , , , , , , , , , , , , , , , , ,
-148.830770971985,-162.58746515052,-13.7566941785349,328.816388597447,304.257560352865,-24.0591850646222,-168.644622684,-208.906881430774,-178.2886311512,155.709118061253,-67.5370383967254,-88.172079664528, , , , , , , , , , , , , , , , , , , , , , , , , ,9391,9756, , ,9570,8667, , , , ,9969, , , , , , , , , , , , , , , , , , , , , , , , ,
-151.276644568107,-162.467808357257,-11.1911637891502,334.639353839512,315.500634757673,-5.66217042869017,-165.445440190154,-211.399857554009,-184.496986004468,156.872226462682,-70.0427403894787,-86.8294860732041, , , , , , , , , , , , , , , , , , , , , , , , , ,9462,9950, , , ,8689, , , , , , , , , , , , , , , , , , , , , , , , , , , , , ,
-151.740709632955,-162.019131770348,-10.278422137393,338.509739014259,334.540729069462,3.01355966476613,-166.142652542718,-213.314171721983,-186.117936899389,156.879920701651,-70.7311437477811,-86.1487769538707, , , , , , , , , , , , , , , , , , , , , , , , , ,9557,9968, , , ,8708, , , , , , , , , , , , , , , , , , , , , , , , , , , , , ,
-152.345397470013,-160.938504898849,-8.59310742883607,354.519781312184,344.640945957272,12.4663016025494,-166.986443615879,-213.852498145447,-187.403211669898,156.641951184431,-71.8761450205889,-84.7658061638431, , , , , , , , , , , , , , , , , , , , , , , , , ,9559, , , , ,9326, , , , , , , , , , , , , , , , , , , , , , , , , , , , , ,
-152.540632166695,-157.415642016166,-4.87500984947038,358.327525116489,357.95071281561,29.9037149423459,-167.932564888273,-216.981057883116,-193.54649568819,154.978137091431,-73.8328111586128,-81.1453259328185, , , , , , , , , , , , , , , , , , , , , , , , , , , , , , ,9389, , , , , , , , , , , , , , , , , , , , , , , , , , , , , ,
-152.914777718216,-153.796128440103,-0.881350721886541,360.63604586096,373.407371431856,38.3601084093927,-168.937384834699,-219.250229290203,-196.508612370492,153.355453079159,-76.0167134981651,-77.338739580995, , , , , , , , , , , , , , , , , , , , , , , , , , , , , , ,9455, , , , , , , , , , , , , , , , , , , , , , , , , , , , , ,
-154.039672913353,-150.135585355375,3.90408755797868,363.120966987222,381.837252584523,46.7404896818885,-169.960065507319,-219.16198497939,-197.107338297649,152.087629134364,-78.9718802356663,-73.1157488986984, , , , , , , , , , , , , , , , , , , , , , , , , , , , , , ,9509, , , , , , , , , , , , , , , , , , , , , , , , , , , , , ,
-153.766569246244,-146.480411832402,7.28615741384173,364.417975265259,399.897111053259,55.0377013896983,-170.964301130028,-219.485411898213,-197.768757698074,150.123490539323,-80.526363330043,-69.5971272092805, , , , , , , , , , , , , , , , , , , , , , , , , , , , , , ,9532, , , , , , , , , , , , , , , , , , , , , , , , , , , , , ,
-153.33892037001,-142.867362029425,10.4715583405853,377.871111535935,407.162672100191,63.2420451784394,-170.250144193219,-218.718322716326,-197.69172144349,148.103141199718,-81.905239355298,-66.1979018444202, , , , , , , , , , , , , , , , , , , , , , , , , , , , , , ,9559, , , , , , , , , , , , , , , , , , , , , , , , , , , , , ,
-152.757946677983,-139.323767033997,13.4341796439863,380.530277983537,415.61735496265,81.197957024749,-165.541711033148,-218.999812926177,-200.307311184343,146.04085685599,-83.096063160985,-62.9447936950057, , , , , , , , , , , , , , , , , , , , , , , , , , , , , , , , , , , , , , , , , , , , , , , , , , , , , , , , , , , , ,
-152.888953250169,-135.868254312044,17.0206989381257,380.299015754561,430.416095753864,89.1806770792597,-160.626180609871,-218.010780854096,-199.546120830642,144.378603781107,-84.9548260941477,-59.4237776869594, , , , , , , , , , , , , , , , , , , , , , , , , , , , , , , , , , , , , , , , , , , , , , , , , , , , , , , , , , , , ,
-152.025355517457,-132.511806826703,19.5135486907549,391.732311363888,435.751140153996,99.2002857235473,-155.514755444383,-216.158442336322,-198.644214961455,142.26858117208,-85.7694521041064,-56.4991290679742, , , , , , , , , , , , , , , , , , , , , , , , , , , , , , , , , , , , , , , , , , , , , , , , , , , , , , , , , , , , ,
-151.060503430143,-129.651826342655,21.4086770874881,396.01795869891,450.391774195828,114.648538200774,-150.223488132249,-217.907779958306,-203.341015744161,140.356164886399,-86.2345902588157,-54.1215746275837, , , , , , , , , , , , , , , , , , , , , , , , , , , , , , , , , , , , , , , , , , , , , , , , , , , , , , , , , , , , ,
-149.943712978231,-129.185921649387,20.757791328844,394.188803360667,455.770513975625,122.198857941048,-144.771669181384,-220.120242506703,-204.526382139874,139.564817313809,-85.3507521535377,-54.2140651602718, , , , , , , , , , , , , , , , , , , , , , , , , , , , , , , , , , , , , , , , , , , , , , , , , , , , , , , , , , , , ,
-150.463644283867,-128.846595238414,21.6170490454533,401.015745250993,458.926611456429,129.579043491677,-139.180102716635,-222.358689189328,-202.778268901527,139.655119761141,-86.0403466646607,-53.6147730964808, , , , , , , , , , , , , , , , , , , , , , , , , , , , , , , , , , , , , , , , , , , , , , , , , , , , , , , , , , , , ,
-153.278267473117,-126.72419404058,26.5540734325368,408.498527248043,474.20269799815,136.777639124804,-133.469342284069,-224.69611415757,-201.743421649273,140.001230756848,-89.916170452827,-50.0850603040219, , , , , , , , , , , , , , , , , , , , , , , , , , , , , , , , , , , , , , , , , , , , , , , , , , , , , , , , , , , , ,
-156.263717922856,-125.766693849286,30.4970240735702,404.997103881385,475.806698544741,143.784756920213,-127.657966699632,-227.198776424647,-199.76979422037,141.015205886071,-93.3803709982136,-47.6348348878584, , , , , , , , , , , , , , , , , , , , , , , , , , , , , , , , , , , , , , , , , , , , , , , , , , , , , , , , , , , , ,
-156.700564481609,-125.782218357448,30.9183461241616,405.489828757583,481.393447804217,150.592506838918,-121.760977764885,-229.921485428279,-200.505401231553,141.241391419529,-93.8094553028857,-47.4319361166435, , , , , , , , , , , , , , , , , , , , , , , , , , , , , , , , , , , , , , , , , , , , , , , , , , , , , , , , , , , , ,
-155.035532262646,-125.93698199497,29.0985502676767,402.629370722522,491.490574554204,157.195414246394,-115.788401987368,-232.903790253552,-201.263766497207,140.486257128808,-92.0670412651616,-48.4192158636468, , , , , , , , , , , , , , , , , , , , , , , , , , , , , , , , , , , , , , , , , , , , , , , , , , , , , , , , , , , , ,
-155.976595503507,-126.230902839391,29.7456926641166,397.440001768026,490.731520465203,163.590796675767,-109.744177389731,-236.167315413756,-199.201268242664,141.103749171449,-92.8611440838122,-48.2426050876375, , , , , , , , , , , , , , , , , , , , , , , , , , , , , , , , , , , , , , , , , , , , , , , , , , , , , , , , , , , , ,
-159.059387813115,-126.65901654315,32.4003712699654,405.093854876895,498.610270586958,169.779063769847,-103.62540035007,-239.714396362535,-198.456638204266,142.859202178133,-95.7298795415406,-47.1293226365927, , , , , , , , , , , , , , , , , , , , , , , , , , , , , , , , , , , , , , , , , , , , , , , , , , , , , , , , , , , , ,
-162.262843915414,-127.210751446058,35.0520924693561,400.241822813913,504.235006775828,175.763906710223,-97.4219931475357,-243.52805555331,-196.387253725272,144.736797680736,-98.6574681923852,-46.0793294883512, , , , , , , , , , , , , , , , , , , , , , , , , , , , , , , , , , , , , , , , , , , , , , , , , , , , , , , , , , , , ,
-165.5544660392,-127.869622006645,37.6848440325557,393.428661791269,501.216169109806,181.552352771187,-91.1168320408491,-247.573249067897,-195.876056113531,146.712044022922,-101.619655035878,-45.0923889870449, , , , , , , , , , , , , , , , , , , , , , , , , , , , , , , , , , , , , , , , , , , , , , , , , , , , , , , , , , , , ,
-166.857625137457,-128.613508019874,38.2441171175834,400.001717333436,509.42354866537,187.154669423751,-84.6863528270408,-251.79923248752,-193.737247273609,147.735566578666,-102.550871127521,-45.1846954511456, , , , , , , , , , , , , , , , , , , , , , , , , , , , , , , , , , , , , , , , , , , , , , , , , , , , , , , , , , , , ,
-164.390893255814,-129.415596367174,34.9752968886396,400.425700594468,513.33689422054,192.584106002604,-78.1016276569411,-256.14285310515,-192.450161342943,146.903244811494,-99.683095072227,-47.2201497392678, , , , , , , , , , , , , , , , , , , , , , , , , , , , , , , , , , , , , , , , , , , , , , , , , , , , , , , , , , , , ,
-163.773587683,-130.245956459141,33.5276312238593,392.111355603089,508.282608317174,197.856460973739,-71.3298807255902,-260.53255751407,-196.981024661849,147.00977207107,-98.6506094534298,-48.359162617641, , , , , , , , , , , , , , , , , , , , , , , , , , , , , , , , , , , , , , , , , , , , , , , , , , , , , , , , , , , , ,
-166.723159451549,-131.073619993711,35.6495394578385,390.561824796087,507.144769053245,202.989464457603,-64.3363786924384,-264.892883667857,-201.517874931328,148.89838972263,-101.186349454694,-47.7120402679364, , , , , , , , , , , , , , , , , , , , , , , , , , , , , , , , , , , , , , , , , , , , , , , , , , , , , , , , , , , , ,
-169.59204759452,-131.868951020316,37.7230965742043,385.652540381285,500.886808569908,208.001973860496,-57.0865955122682,-269.149175339374,-205.958145288743,150.730499307418,-103.657572084362,-47.0729272230562, , , , , , , , , , , , , , , , , , , , , , , , , , , , , , , , , , , , , , , , , , , , , , , , , , , , , , , , , , , , ,
-172.335973632283,-128.756920120541,43.5790535117419,375.983893000014,501.439511528098,212.912998010658,-49.548515796289,-266.322476501116,-210.202737905357,150.546446876412,-107.957513572013,-42.5889333044, , , , , , , , , , , , , , , , , , , , , , , , , , , , , , , , , , , , , , , , , , , , , , , , , , , , , , , , , , , , ,
-174.915124260851,-125.530432148161,49.3846921126903,376.777116324804,505.729806708872,217.740590381448,-41.694913356535,-261.029646447763,-214.16150423622,150.222778204506,-112.149908186771,-38.0728700177355, , , , , , , , , , , , , , , , , , , , , , , , , , , , , , , , , , , , , , , , , , , , , , , , , , , , , , , , , , , , ,
-171.439005247705,-122.187753538625,49.2512517090803,366.285740727407,497.89283667247,222.500679065056,-33.5054295262772,-255.387242681873,-217.758256948353,146.813379393165,-110.345128478393,-36.4682509147727, , , , , , , , , , , , , , , , , , , , , , , , , , , , , , , , , , , , , , , , , , , , , , , , , , , , , , , , , , , , ,
-167.279280820962,-118.732056879872,48.5472239410905,355.824582062345,489.583333274521,227.205923897331,-24.9682828900548,-249.373614035904,-220.935017981559,143.005668850417,-107.913252381027,-35.0924164693911, , , , , , , , , , , , , , , , , , , , , , , , , , , , , , , , , , , , , , , , , , , , , , , , , , , , , , , , , , , , ,
-168.698103916496,-115.171044753503,53.5270591629926,360.317262274171,480.824170328354,231.864703964017,-16.081467394357,-242.976549420782,-223.655252116812,141.934574334999,-111.112581539744,-30.8219927952556, , , , , , , , , , , , , , , , , , , , , , , , , , , , , , , , , , , , , , , , , , , , , , , , , , , , , , , , , , , , ,
-170.305117110173,-111.516143033605,58.7889740765679,354.341543784237,471.635396843628,236.480336509854,-6.8533362686363,-236.194222218554,-225.905898098387,140.910630071889,-114.547045593371,-26.3635844785189, , , , , , , , , , , , , , , , , , , , , , , , , , , , , , , , , , , , , , , , , , , , , , , , , , , , , , , , , , , , ,
-171.691452361167,-107.781351683388,63.9101006777798,342.37080339154,462.034090532276,241.05060947478,2.69747933115232,-229.03534813694,-227.698081935347,139.736402022278,-117.800776519474,-21.9356255028043, , , , , , , , , , , , , , , , , , , , , , , , , , , , , , , , , , , , , , , , , , , , , , , , , , , , , , , , , , , , ,
-172.861455711561,-103.981887248142,68.8795684634191,335.289007835578,452.034286294499,245.567679952371,12.5428114697876,-225.485785140319,-229.066470164251,138.421671479851,-120.87051208749,-17.5511593923616, , , , , , , , , , , , , , , , , , , , , , , , , , , , , , , , , , , , , , , , , , , , , , , , , , , , , , , , , , , , ,
-173.321192320396,-100.132775371701,73.1884169486958,322.651869194569,450.620485770649,250.018359675209,22.6462975905232,-218.127513680676,-230.06728881353,136.726983846049,-123.254804634546,-13.4721792115028, , , , , , , , , , , , , , , , , , , , , , , , , , , , , , , , , , , , , , , , , , , , , , , , , , , , , , , , , , , , ,
-167.681931230927,-96.2475523620335,71.4343788688936,314.688320179154,457.869627674469,254.384782240731,32.9652230116175,-209.98315003695,-230.775097943161,131.96474179648,-119.558155049911,-12.4065867465703, , , , , , , , , , , , , , , , , , , , , , , , , , , , , , , , , , , , , , , , , , , , , , , , , , , , , , , , , , , , ,
-162.374208812274,-92.337215353127,70.0369934591469,311.322824441974,446.728484760528,258.645422086799,43.4527357647591,-201.580143670078,-231.278477809516,127.3557120827,-116.205601135711,-11.1501109469904, , , , , , , , , , , , , , , , , , , , , , , , , , , , , , , , , , , , , , , , , , , , , , , , , , , , , , , , , , , , ,
-162.833138788334,-88.4095249515033,74.4236138368309,297.777556166211,438.191834888499,262.776405459318,54.0602898187657,-192.958535534942,-231.674852292533,125.621331869919,-118.628376312583,-6.99295555733654, , , , , , , , , , , , , , , , , , , , , , , , , , , , , , , , , , , , , , , , , , , , , , , , , , , , , , , , , , , , ,
-163.18759124085,-84.4687148863866,78.7188763544631,290.027314695677,447.689061190636,266.753018925156,64.7401633052085,-184.157659029356,-232.064739302026,123.828153063618,-120.953233797657,-2.87491926596208, , , , , , , , , , , , , , , , , , , , , , , , , , , , , , , , , , , , , , , , , , , , , , , , , , , , , , , , , , , , ,
-157.764654625969,-80.5156056732751,77.2490489526936,282.348224404817,441.498185946354,270.551290030903,75.4478950074644,-175.21377239896,-224.884059388959,119.140130149622,-117.506851789331,-1.6332783602911, , , , , , , , , , , , , , , , , , , , , , , , , , , , , , , , , , , , , , , , , , , , , , , , , , , , , , , , , , , , ,
-151.503077400917,-76.5480665103194,74.9550108905977,268.017045571261,428.867774657612,274.149497200403,86.1444886764129,-166.158024710422,-217.629548548018,114.025571955618,-113.229044145758,-0.796527809861161, , , , , , , , , , , , , , , , , , , , , , , , , , , , , , , , , , , , , , , , , , , , , , , , , , , , , , , , , , , , ,
-145.185336866043,-72.5617358472894,72.6236010187535,253.453753828768,415.861010148982,277.529466857472,96.798251931492,-157.014886255993,-210.346560820851,108.873536356666,-108.904468942398,0.0309325857317475, , , , , , , , , , , , , , , , , , , , , , , , , , , , , , , , , , , , , , , , , , , , , , , , , , , , , , , , , , , , ,
-138.82772937414,-68.5509004631138,70.2768289110261,238.674013130661,402.47623245545,280.67753468755,107.386159968343,-147.801133847846,-203.072664390313,103.689314918627,-104.552279142583,0.862964223955814, , , , , , , , , , , , , , , , , , , , , , , , , , , , , , , , , , , , , , , , , , , , , , , , , , , , , , , , , , , , ,
-138.146020785132,-64.509436112013,73.6365846731195,223.69374563852,388.712909162887,283.58508109253,117.894657958965,-138.525437643949,-195.835709442773,101.327728448573,-105.891302729126,4.56357428055294, , , , , , , , , , , , , , , , , , , , , , , , , , , , , , , , , , , , , , , , , , , , , , , , , , , , , , , , , , , , ,
-138.241405662407,-60.4317176714433,77.8096879909639,208.528960303817,374.572114997674,286.248593144198,128.319838796242,-129.188549845906,-188.65242426484,99.3365616669251,-108.025546826686,8.68898515975995, , , , , , , , , , , , , , , , , , , , , , , , , , , , , , , , , , , , , , , , , , , , , , , , , , , , , , , , , , , , ,
-138.366549804397,-56.3134124148207,82.0531373895768,193.195534811448,360.056819913269,288.669251303703,138.666959878504,-119.784049955529,-181.527616989782,97.339981109609,-110.209843596987,12.8698624873777, , , , , , , , , , , , , , , , , , , , , , , , , , , , , , , , , , , , , , , , , , , , , , , , , , , , , , , , , , , , ,
-131.925179270041,-52.1520866182766,79.7730926517646,182.407454059953,345.171964775511,290.852083211642,148.949301054214,-110.299561855787,-182.11573884663,92.0386329441588,-105.849135960903,13.8105030167437, , , , , , , , , , , , , , , , , , , , , , , , , , , , , , , , , , , , , , , , , , , , , , , , , , , , , , , , , , , , ,
-125.45894219764,-47.9475877171146,77.5113544805252,171.73080880453,329.924328718024,292.804763277514,159.186417528278,-100.718329193634,-178.388622702995,86.7032649573772,-101.485148339083,14.781883381705, , , , , , , , , , , , , , , , , , , , , , , , , , , , , , , , , , , , , , , , , , , , , , , , , , , , , , , , , , , , ,
-118.958192366684,-43.7022002359115,75.2559921307729,163.581617686231,314.322207530031,294.536160179849,169.401898948039,-91.02101890847,-175.952388689329,81.3301963012979,-97.1070922487289,15.7768959474304, , , , , , , , , , , , , , , , , , , , , , , , , , , , , , , , , , , , , , , , , , , , , , , , , , , , , , , , , , , , ,
-112.410540927368,-39.420596402251,72.9899445251167,148.086627583177,298.374928270641,296.054740916486,179.620794961599,-81.1876173499635,-177.079181111358,75.9155686648093,-92.7002427262424,16.7846740614325, , , , , , , , , , , , , , , , , , , , , , , , , , , , , , , , , , , , , , , , , , , , , , , , , , , , , , , , , , , , ,
-112.410540927368,-35.1096059745007,77.300934952867,139.405850318324,282.092229081287,297.366930446647,189.866894069025,-71.1992880672395,-178.42974126834,73.7600734509341,-94.8557379401176,21.0956644891828, , , , , , , , , , , , , , , , , , , , , , , , , , , , , , , , , , , , , , , , , , , , , , , , , , , , , , , , , , , , ,
-108.187774749267,-30.7778256857294,77.4099490635375,123.64952149217,265.483540761694,298.475507094877,200.160039535154,-61.0400767420768,-176.133678161387,69.482800217498,-92.7988619064024,23.3160616889037, , , , , , , , , , , , , , , , , , , , , , , , , , , , , , , , , , , , , , , , , , , , , , , , , , , , , , , , , , , , ,
-101.408585951959,-26.4350934277352,74.9734925242236,108.10779146833,248.557217273328,309.281067374453,210.513639999605,-50.6983794046886,-168.687722418382,63.9218396898469,-88.1910392380914,24.2691995482439, , , , , , , , , , , , , , , , , , , , , , , , , , , , , , , , , , , , , , , , , , , , , , , , , , , , , , , , , , , , ,
-94.4710780161246,-22.0918703953673,72.3792076207574,108.10779146833,231.319772581649,313.373537453864,220.93250010014,-40.1681306368058,-161.026018426512,58.2814742057459,-83.4251428184413,25.1436686126947, , , , , , , , , , , , , , , , , , , , , , , , , , , , , , , , , , , , , , , , , , , , , , , , , , , , , , , , , , , , ,
-87.4300699431772,-17.7585941469226,69.6714757962547,108.10779146833,213.775189908592,320.252751142305,231.411071933256,-29.4497055019186,-153.110485189589,52.5943320450499,-78.5507728697162,25.9564408246657, , , , , , , , , , , , , , , , , , , , , , , , , , , , , , , , , , , , , , , , , , , , , , , , , , , , , , , , , , , , ,
-80.3022196235509,-13.4450716037329,66.8571480198181,108.10779146833,195.924375743417,330.123125699221,241.932214337376,-18.5505475696353,-144.911780297458,46.8736456136419,-73.5796838216848,26.7060382080423, , , , , , , , , , , , , , , , , , , , , , , , , , , , , , , , , , , , , , , , , , , , , , , , , , , , , , , , , , , , ,
-72.9293807444933,-9.15996839420519,63.7694123502883,108.10779146833,193.462872870578,335.065831805634,256.248807723918,-7.48552908978797,-136.411547677197,41.0446745693492,-68.3493965473911,27.3047219780412, , , , , , , , , , , , , , , , , , , , , , , , , , , , , , , , , , , , , , , , , , , , , , , , , , , , , , , , , , , , ,
-65.5951297656363,-4.91042750243811,60.6847022631984,108.10779146833,187.218498042751,339.03239609753,272.045942801384,3.7229737921781,-127.604018369189,35.2527786340372,-63.1399160144176,27.8871373803798, , , , , , , , , , , , , , , , , , , , , , , , , , , , , , , , , , , , , , , , , , , , , , , , , , , , , , , , , , , , ,
-58.1120705792263,-0.70182892305435,57.4102416561721,108.10779146833,168.420479617586,343.186318485043,287.581581122379,15.0453266662654,-118.496851422268,29.4069497511403,-57.7611561176995,28.3542063665586, , , , , , , , , , , , , , , , , , , , , , , , , , , , , , , , , , , , , , , , , , , , , , , , , , , , , , , , , , , , ,
-50.4777754149343,3.4623092486829,53.9400846636174,108.10779146833,154.931538000189,341.934714472281,299.726409272965,26.4452322504191,-109.111165781455,23.5077330831257,-52.2089300392761,28.7011969561498, , , , , , , , , , , , , , , , , , , , , , , , , , , , , , , , , , , , , , , , , , , , , , , , , , , , , , , , , , , , ,
-42.8948996135775,7.58029030934425,50.4751899229219,108.10779146833,139.706323815038,344.297289990514,312.838798946378,37.8806665077956,-99.4807874042404,17.6573046521166,-46.68504476825,29.0277401161327, , , , , , , , , , , , , , , , , , , , , , , , , , , , , , , , , , , , , , , , , , , , , , , , , , , , , , , , , , , , ,
-35.149312805684,11.6520598288086,46.8013726344928,108.10779146833,142.339211624472,349.661236161845,327.315695676226,49.3050917340616,-89.6508051196652,11.7486264884376,-40.9753427200886,29.2267162316504, , , , , , , , , , , , , , , , , , , , , , , , , , , , , , , , , , , , , , , , , , , , , , , , , , , , , , , , , , , , ,
-27.5221155431677,16.7321210082125,44.2542365513803,108.10779146833,131.529090552331,347.64019565264,341.206017151488,60.6688332701311,-79.6755794946872,5.39499726747756,-35.8881760472743,30.4931787797961, , , , , , , , , , , , , , , , , , , , , , , , , , , , , , , , , , , , , , , , , , , , , , , , , , , , , , , , , , , , ,
-19.95670402899,23.0440159876245,43.0007200166147,108.10779146833,124.310990008584,352.099516752142,353.358350862164,71.9204796516439,-69.6163728340944,-1.54365597931728,-31.4787120228027,33.0223680021193, , , , , , , , , , , , , , , , , , , , , , , , , , , , , , , , , , , , , , , , , , , , , , , , , , , , , , , , , , , , ,
-12.2115046926724,27.4060114404995,39.617516133172,108.10779146833,126.391062683465,355.219885904945,362.835575204031,83.0081710572737,-59.5387681904368,-7.59725337391355,-25.9145104129225,33.5117637868354, , , , , , , , , , , , , , , , , , , , , , , , , , , , , , , , , , , , , , , , , , , , , , , , , , , , , , , , , , , , ,
-4.84060969611232,33.0841801609233,37.9247898570358,108.10779146833,106.362377636882,354.421900743614,371.01195600975,93.8806751143862,-49.5100329494736,-14.1217852324055,-21.3826997765743,35.5044850089792, , , , , , , , , , , , , , , , , , , , , , , , , , , , , , , , , , , , , , , , , , , , , , , , , , , , , , , , , , , , ,
2.51522086865342,38.9137486093589,36.3985277407056,108.10779146833,91.4078106047409,350.736978877937,378.129600980637,104.488195466352,-39.5965709269727,-20.7144847390062,-16.9416534360264,37.6561381750319, , , , , , , , , , , , , , , , , , , , , , , , , , , , , , , , , , , , , , , , , , , , , , , , , , , , , , , , , , , , ,
9.73993045314253,42.8496758707026,33.1097454175603,108.10779146833,69.2765388941141,350.046662121943,388.215370692986,114.782895583059,-29.8616012447811,-26.2948031619226,-11.6849074822091,37.9797106441311, , , , , , , , , , , , , , , , , , , , , , , , , , , , , , , , , , , , , , , , , , , , , , , , , , , , , , , , , , , , ,
16.6557992714333,48.5968194411359,31.9410201697028,108.10779146833,61.9449467097374,347.878136993304,397.710128408067,124.719139661374,-20.3631984138338,-32.6263093562846,-7.64261044913503,40.268919805419, , , , , , , , , , , , , , , , , , , , , , , , , , , , , , , , , , , , , , , , , , , , , , , , , , , , , , , , , , , , ,
23.5178995343346,53.9205114500844,30.40261191575,108.10779146833,55.4322901266036,344.320354572947,406.214868599299,134.253463569754,-11.1528160294288,-38.7192054922095,-3.44235619070799,42.1615616829169, , , , , , , , , , , , , , , , , , , , , , , , , , , , , , , , , , , , , , , , , , , , , , , , , , , , , , , , , , , , ,
29.9768504233997,57.8754197196429,27.8985692962434,108.10779146833,39.570577278328,335.270514990319,412.098097073179,143.344306908343,-2.27438663182789,-43.9261350715213,1.03914056357788,42.8869945079428, , , , , , , , , , , , , , , , , , , , , , , , , , , , , , , , , , , , , , , , , , , , , , , , , , , , , , , , , , , , ,
36.165417437572,63.2602836272215,27.0948661896496,108.10779146833,39.883054978867,328.568605355939,416.669181636578,151.951569618304,6.23596060278709,-49.7128505323968,4.53527562396095,45.1775749084352, , , , , , , , , , , , , , , , , , , , , , , , , , , , , , , , , , , , , , , , , , , , , , , , , , , , , , , , , , , , ,
41.9924645913772,67.5522115971837,25.5597470058066,108.10779146833,21.9059984641835,321.808747463649,422.252203088123,160.036097163962,14.3495883671748,-54.7723380942805,8.21635879278502,46.5559793014948, , , , , , , , , , , , , , , , , , , , , , , , , , , , , , , , , , , , , , , , , , , , , , , , , , , , , , , , , , , , ,
47.510538113771,70.940962717382,23.4304246036111,108.10779146833,-1.71340282537839,314.341335937459,426.850156639209,167.559229965516,22.0445362292198,-59.2257504155766,12.0400567550797,47.1856936604962, , , , , , , , , , , , , , , , , , , , , , , , , , , , , , , , , , , , , , , , , , , , , , , , , , , , , , , , , , , , ,
52.6655780591061,74.194096113504,21.528518054398,108.10779146833,-7.22748563169811,306.507812776698,430.496612309322,174.48255550952,29.3043430327606,-63.4298370863051,15.5685300023538,47.8613070839506, , , , , , , , , , , , , , , , , , , , , , , , , , , , , , , , , , , , , , , , , , , , , , , , , , , , , , , , , , , , ,
57.4135370407439,77.2730020039773,19.8594649632336,108.10779146833,-7.22748563169811,292.347009820842,431.293814024103,180.767965908945,36.1166716079219,-67.3432695223606,18.7770360387549,48.5662334836051, , , , , , , , , , , , , , , , , , , , , , , , , , , , , , , , , , , , , , , , , , , , , , , , , , , , , , , , , , , , ,
61.7018413604536,80.1542390058064,18.4523976453529,108.10779146833,-7.22748563169811,281.178428891241,431.189426352927,186.37805926843,42.471896466905,-70.92804018313,21.6247218575501,49.3033183255793, , , , , , , , , , , , , , , , , , , , , , , , , , , , , , , , , , , , , , , , , , , , , , , , , , , , , , , , , , , , ,
65.5300626533674,82.8011195847368,17.2710569313696,108.10779146833,-7.22748563169811,264.980067275716,431.993120705092,191.276853231993,48.3617888757635,-74.1655911190521,24.1295028609986,50.0360882580529, , , , , , , , , , , , , , , , , , , , , , , , , , , , , , , , , , , , , , , , , , , , , , , , , , , , , , , , , , , , ,
68.8699075986147,85.1757052898299,16.3057976912154,108.10779146833,-7.22748563169811,250.142666386247,431.944156829815,195.430725504095,53.7783960863171,-77.0228064442223,26.2820549536994,50.7407514905223, , , , , , , , , , , , , , , , , , , , , , , , , , , , , , , , , , , , , , , , , , , , , , , , , , , , , , , , , , , , ,
71.7373971782307,87.2757388583625,15.5383416801319,108.10779146833,-7.22748563169811,240.574073446302,430.372352934677,198.809469001238,58.7131739272658,-79.5065680182966,28.0995277490491,51.4070402692469, , , , , , , , , , , , , , , , , , , , , , , , , , , , , , , , , , , , , , , , , , , , , , , , , , , , , , , , , , , , ,
74.129636221585,89.0152517922386,14.8856155706537,108.10779146833,-7.22748563169811,229.145967066016,424.791913505891,201.387345982736,63.1564019561237,-81.5724440069118,29.6220103254654,51.9504336814458, , , , , , , , , , , , , , , , , , , , , , , , , , , , , , , , , , , , , , , , , , , , , , , , , , , , , , , , , , , , ,
75.967325727669,90.4812681331184,14.5139424054495,108.10779146833,-7.22748563169811,213.232205443614,422.068014279451,203.144037753629,67.0968891333659,-83.2242969303937,30.7266916611095,52.4976052692836, , , , , , , , , , , , , , , , , , , , , , , , , , , , , , , , , , , , , , , , , , , , , , , , , , , , , , , , , , , , ,
77.3061495048858,91.4767055195932,14.1705560147076,108.10779146833,-7.22748563169811,205.447062512431,418.570631996398,204.065408220769,70.5219621424062,-84.3914275122395,31.5677967450888,52.8236307671501, , , , , , , , , , , , , , , , , , , , , , , , , , , , , , , , , , , , , , , , , , , , , , , , , , , , , , , , , , , , ,
78.1496421582044,92.1955680355606,14.0459258773564,105.097014661963,-7.22748563169811,192.597310198509,411.909011984113,204.144026842048,73.4177143214951,-85.1726050968825,32.0518581404237,53.1207469564582, , , , , , , , , , , , , , , , , , , , , , , , , , , , , , , , , , , , , , , , , , , , , , , , , , , , , , , , , , , , ,
78.4442236619679,92.4324958575823,13.9882721956146,94.7790258345411,-7.22748563169811,179.31500911056,403.922842171443,203.379423737196,75.7694793461996,-85.4383597597751,32.2279757331763,53.2103840265981, , , , , , , , , , , , , , , , , , , , , , , , , , , , , , , , , , , , , , , , , , , , , , , , , , , , , , , , , , , , ,
78.91702721069,92.2074388326116,13.2904116219217,85.4214394640206,-7.22748563169811,173.22092616645,397.917259088789,201.778072233992,77.5624823181478,-85.5622330216508,32.8133077943839,52.7489252272663, , , , , , , , , , , , , , , , , , , , , , , , , , , , , , , , , , , , , , , , , , , , , , , , , , , , , , , , , , , , ,
79.0438692668704,91.7385348567293,12.6946655898591,77.0120541522339,-7.22748563169811,154.151274642809,390.252918144262,199.353113926728,78.782615619993,-85.3912020617999,33.1746018385054,52.2166002232938, , , , , , , , , , , , , , , , , , , , , , , , , , , , , , , , , , , , , , , , , , , , , , , , , , , , , , , , , , , , ,
78.7252480997115,90.8166207769966,12.0913726772853,69.521365480913,-7.22748563169811,142.146859118269,378.048511312665,196.123864326553,79.4172893243835,-84.7709344383541,33.3169377112129,51.4539967271406, , , , , , , , , , , , , , , , , , , , , , , , , , , , , , , , , , , , , , , , , , , , , , , , , , , , , , , , , , , , ,
77.9519729189817,89.5157870917617,11.5638141727801,62.9043637903895,-7.22748563169811,121.214375254998,369.630333871071,192.11516293888,79.4563131946301,-83.7338800053717,33.1940793731005,50.5398006322706, , , , , , , , , , , , , , , , , , , , , , , , , , , , , , , , , , , , , , , , , , , , , , , , , , , , , , , , , , , , ,
76.7163052750188,87.9253850212224,11.2090797462038,57.1030624340404,-7.22748563169811,109.31408589594,360.289189882422,187.356649701298,78.8927738642892,-82.3208451481206,32.7536127644072,49.5672323837127, , , , , , , , , , , , , , , , , , , , , , , , , , , , , , , , , , , , , , , , , , , , , , , , , , , , , , , , , , , , ,
74.307416888727,86.0563353083542,11.7489184196273,52.049543373634,-7.22748563169811,89.6019288422096,345.049284428938,181.882049211312,77.7238710701212,-80.1818760985406,31.2792492345496,48.9026268639904, , , , , , , , , , , , , , , , , , , , , , , , , , , , , , , , , , , , , , , , , , , , , , , , , , , , , , , , , , , , ,
71.9604479154538,83.6281653836438,11.6677174681902,47.6692917375643,-7.22748563169811,86.9503718495069,334.227465236009,175.728524320267,75.7108681434415,-77.7943066495488,30.1463652236315,47.6479414259167, , , , , , , , , , , , , , , , , , , , , , , , , , , , , , , , , , , , , , , , , , , , , , , , , , , , , , , , , , , , ,
69.3854605536011,81.1323620597238,11.7469015061229,43.8846055153575,-7.22748563169811,67.9361112647049,322.440415338753,168.936130439726,73.095009110942,-75.2589113066625,28.8192795237388,46.439631782923, , , , , , , , , , , , , , , , , , , , , , , , , , , , , , , , , , , , , , , , , , , , , , , , , , , , , , , , , , , , ,
65.7911213352769,78.2633783591484,12.4722570238717,40.6178916868167,-7.22748563169811,66.1588132986728,306.45733526424,161.547372125929,69.8947547132797,-72.0272498472127,26.6594321557023,45.3678176915097, , , , , , , , , , , , , , , , , , , , , , , , , , , , , , , , , , , , , , , , , , , , , , , , , , , , , , , , , , , , ,
61.6247418216552,74.974028671166,13.349286849511,37.7946831496084,-7.22748563169811,46.1304440773151,290.477417975128,153.606841145279,66.2804280682544,-68.2993852464106,24.1377274860718,44.1616577603382, , , , , , , , , , , , , , , , , , , , , , , , , , , , , , , , , , , , , , , , , , , , , , , , , , , , , , , , , , , , ,
57.1559076182488,71.6196904131964,14.4637827949477,35.3462311318736,-7.22748563169811,30.8138097021361,272.564114133836,145.160902163886,62.0833091568142,-64.3877990157226,21.3460624116503,43.0417366040717, , , , , , , , , , , , , , , , , , , , , , , , , , , , , , , , , , , , , , , , , , , , , , , , , , , , , , , , , , , , ,
52.4253574894086,67.9984541032202,15.5730966138117,33.2115504509969,-7.22748563169811,9.77838115875146,254.356991307518,136.257387208766,57.2833382468893,-60.2119057963144,18.4261304377982,41.7857753585156, , , , , , , , , , , , , , , , , , , , , , , , , , , , , , , , , , , , , , , , , , , , , , , , , , , , , , , , , , , , ,
47.4771238636326,63.9787837013348,16.5016598377023,31.338825172062,-7.22748563169811,3.37860738227549,235.790861167478,126.94526234746,52.0187698102458,-55.7279537824837,15.4877320129649,40.2402217695182, , , , , , , , , , , , , , , , , , , , , , , , , , , , , , , , , , , , , , , , , , , , , , , , , , , , , , , , , , , , ,
42.9395512133876,59.8549475634334,16.9153963500459,29.6861235657592,-7.22748563169811,-16.2683781510853,217.275698380934,117.274241170058,46.3289218531708,-51.3972493884105,13.0120774316705,38.3851719567393, , , , , , , , , , , , , , , , , , , , , , , , , , , , , , , , , , , , , , , , , , , , , , , , , , , , , , , , , , , , ,
38.4261521996704,55.6259216021342,17.199769402464,28.2214238392104,-7.22748563169811,-18.0504172279921,198.27739361949,107.294340477067,40.4812679838128,-47.0260369009023,10.6131913986029,36.4128455022988, , , , , , , , , , , , , , , , , , , , , , , , , , , , , , , , , , , , , , , , , , , , , , , , , , , , , , , , , , , , ,
33.7357611192508,51.3382623369309,17.6025012176803,26.9220105557678,-7.22748563169811,-34.5860768732719,180.002082810552,97.0553990086347,34.082752222589,-42.5370117280909,8.06662995078496,34.4703817773053, , , , , , , , , , , , , , , , , , , , , , , , , , , , , , , , , , , , , , , , , , , , , , , , , , , , , , , , , , , , ,
28.8167380791619,46.9492171343074,18.1324790551457,25.7733576989364,-7.22748563169811,-47.9769253646555,160.802259402272,86.6065995488863,27.3802892057701,-37.8829776067347,5.34212951200785,32.5408480947262, , , , , , , , , , , , , , , , , , , , , , , , , , , , , , , , , , , , , , , , , , , , , , , , , , , , , , , , , , , , ,
23.5152432169967,42.5002869777679,18.9850437607714,24.7676603293584,-7.22748563169811,-68.0780779640479,142.297142644328,75.9960401820769,20.4275260996223,-33.0077650973823,2.26509972811237,30.7426653692693, , , , , , , , , , , , , , , , , , , , , , , , , , , , , , , , , , , , , , , , , , , , , , , , , , , , , , , , , , , , ,
18.2905255188049,38.0361301046989,19.7456045858942,24.0854181057376,-7.22748563169811,-79.0166195139625,126.651576617514,65.2703925210145,13.4017655526663,-28.1633278117519,-0.727539533544935,28.8908673452962, , , , , , , , , , , , , , , , , , , , , , , , , , , , , , , , , , , , , , , , , , , , , , , , , , , , , , , , , , , , ,
13.1348749688113,33.4253319085644,20.2904569397533,23.822054422029,-7.22748563169811,-79.0166195139625,108.246775656529,54.4746706041866,6.26587197152452,-23.2801034386879,-3.57779098547125,26.8578944241585, , , , , , , , , , , , , , , , , , , , , , , , , , , , , , , , , , , , , , , , , , , , , , , , , , , , , , , , , , , , ,
8.16312744288996,29.0017794223338,20.838651979444,23.218386127436,-7.22748563169811,-79.0166195139625,90.8735789762517,43.6521208714331,-1.14198430123503,-18.5824534326119,-6.3377622682773,24.9202157008886, , , , , , , , , , , , , , , , , , , , , , , , , , , , , , , , , , , , , , , , , , , , , , , , , , , , , , , , , , , , ,
3.30429769360197,24.6753019513646,21.3710042577628,22.75403633599,-7.22748563169811,-79.0166195139625,72.4707351296392,32.8442331095245,-8.62975147733738,-13.9897998224833,-9.0333532820807,23.0231531045634, , , , , , , , , , , , , , , , , , , , , , , , , , , , , , , , , , , , , , , , , , , , , , , , , , , , , , , , , , , , ,
-1.25415161942036,20.4720987106368,21.7262503300573,22.4352176507337,-7.22748563169811,-79.0166195139625,55.2223876282859,22.0908609327263,-15.7556946821761,-9.60897354560825,-11.4902009747391,21.0991745203467, , , , , , , , , , , , , , , , , , , , , , , , , , , , , , , , , , , , , , , , , , , , , , , , , , , , , , , , , , , , ,
-5.77255567537114,15.9874749394687,21.76003061484,22.2675948633399,-7.22748563169811,-79.0166195139625,37.6231835559094,11.4304239724739,-23.1047844235696,-5.1074596320488,-13.7662931451058,18.873752777154, , , , , , , , , , , , , , , , , , , , , , , , , , , , , , , , , , , , , , , , , , , , , , , , , , , , , , , , , , , , ,
-10.1133588109285,11.577000875083,21.6903596860117,22.2558137765394,-7.22748563169811,-79.0166195139625,20.3683470133568,0.90014433081717,-30.0854571772007,-0.731821032077306,-15.9018592484704,16.633680280547, , , , , , , , , , , , , , , , , , , , , , , , , , , , , , , , , , , , , , , , , , , , , , , , , , , , , , , , , , , , ,
-14.2290391978222,7.2071125898476,21.4361517876699,22.4032279833499,-7.22748563169811,-79.0166195139625,3.94453193496875,-9.46374471475644,-37.3137655584779,3.51096330398727,-17.8325954927463,14.3216321887584, , , , , , , , , , , , , , , , , , , , , , , , , , , , , , , , , , , , , , , , , , , , , , , , , , , , , , , , , , , , ,
-18.1107721731983,3.18406046095764,21.2948326341561,22.711736775546,-7.22748563169811,-79.0166195139625,-12.5216311943273,-19.6258820554971,-43.9339618301952,7.46335585612032,-19.7028024036775,12.2394465475565, , , , , , , , , , , , , , , , , , , , , , , , , , , , , , , , , , , , , , , , , , , , , , , , , , , , , , , , , , , , ,
-22.0008087125946,-0.615484171850099,21.3853245407446,23.181659523217,-7.22748563169811,-79.0166195139625,-25.9787816702115,-29.5518082257171,-50.8948220166258,11.3081464422223,-21.6930666266699,10.3849201844469, , , , , , , , , , , , , , , , , , , , , , , , , , , , , , , , , , , , , , , , , , , , , , , , , , , , , , , , , , , , ,
-25.6714875317357,-4.97678624187508,20.6947012898608,23.8115955169591,-7.22748563169811,-79.0166195139625,-35.7238353807976,-39.2081770364124,-57.1786660732405,15.3241368868054,-23.1830944107985,7.85895752399252, , , , , , , , , , , , , , , , , , , , , , , , , , , , , , , , , , , , , , , , , , , , , , , , , , , , , , , , , , , , ,
-29.2539424478543,-8.79500706608339,20.4589353817711,24.5982448065221,-11.9260779290808,-79.0166195139625,-46.3244054147604,-48.5631630389479,-63.521595543416,19.0244747569688,-24.856438914813,5.83196415784353, , , , , , , , , , , , , , , , , , , , , , , , , , , , , , , , , , , , , , , , , , , , , , , , , , , , , , , , , , , , ,
-32.7475804466469,-13.0069375572518,19.7406428893952,25.5361886582531,-18.2393727563042,-79.0166195139625,-55.5442306371475,-57.5870520454904,-69.3463065336996,22.8772590019494,-26.2441116680213,3.36685266607135, , , , , , , , , , , , , , , , , , , , , , , , , , , , , , , , , , , , , , , , , , , , , , , , , , , , , , , , , , , , ,
-36.1147515682154,-17.1534303558112,18.9613212124043,26.6176453664403,-24.0974727119072,-79.0166195139625,-60.879405905115,-66.2529720626939,-75.0737158370444,26.6340909620133,-27.5380363903101,0.903945428296183, , , , , , , , , , , , , , , , , , , , , , , , , , , , , , , , , , , , , , , , , , , , , , , , , , , , , , , , , , , , ,
-38.9887101200518,-20.9327092788569,18.056000841195,27.8322290383813,-29.5065976246106,-79.0166195139625,-73.3083264534203,-74.5376932787775,-80.2351642855802,29.9607096994543,-28.5223554806237,-1.43835421883129, , , , , , , , , , , , , , , , , , , , , , , , , , , , , , , , , , , , , , , , , , , , , , , , , , , , , , , , , , , , ,
-41.5500743786499,-24.9802666396756,16.5698077389744,29.1667490305325,-34.4876723527898,-79.0166195139625,-77.3296682814103,-82.4224049669568,-85.4580206896499,33.2651705091627,-29.0599410588124,-4.20522945035096, , , , , , , , , , , , , , , , , , , , , , , , , , , , , , , , , , , , , , , , , , , , , , , , , , , , , , , , , , , , ,
-43.9144305901486,-29.3613635236359,14.5530670665129,30.6050981406948,-39.0788036067964,-79.0166195139625,-81.2061978370553,-89.8933697811088,-89.7863249112275,36.6378970568922,-29.233748828331,-7.40414822856185, , , , , , , , , , , , , , , , , , , , , , , , , , , , , , , , , , , , , , , , , , , , , , , , , , , , , , , , , , , , ,
-46.1039663412816,-33.6693433442731,12.4346229970087,32.1282842375023,-43.3080846127005,-79.0166195139625,-92.1708023818481,-96.9423646283025,-94.4120906051863,39.8866548427774,-29.2692946691454,-10.6173601736325, , , , , , , , , , , , , , , , , , , , , , , , , , , , , , , , , , , , , , , , , , , , , , , , , , , , , , , , , , , , ,
-48.4924850822752,-37.5538253735993,10.9386597086761,33.7146540169689,-47.1869982967797,-79.0166195139625,-95.2040933773613,-103.566841618942,-98.296043594231,43.0231552279372,-29.7155723954759,-13.3075828324619, , , , , , , , , , , , , , , , , , , , , , , , , , , , , , , , , , , , , , , , , , , , , , , , , , , , , , , , , , , , ,
-50.9961416693141,-41.3318282054568,9.66431346385745,35.3403348669116,-50.8132838181937,-79.0166195139625,-98.0631234476417,-109.769778764477,-102.026602569554,46.1639849373854,-30.330227566586,-15.8337573708, , , , , , , , , , , , , , , , , , , , , , , , , , , , , , , , , , , , , , , , , , , , , , , , , , , , , , , , , , , , ,
-52.8175904553917,-45.3883924130271,7.4291980423648,36.9798871760785,-54.0838900626837,-79.0166195139625,-102.178738041952,-115.559232246704,-105.700948023715,49.1029914342094,-30.1233942488785,-18.9795971853315, , , , , , , , , , , , , , , , , , , , , , , , , , , , , , , , , , , , , , , , , , , , , , , , , , , , , , , , , , , , ,
-54.5456026353907,-49.0136646835961,5.5319379517948,38.6071258697146,-57.107009506658,-79.0166195139625,-109.499802358412,-120.947643254877,-108.72979694133,51.7796336594934,-30.038770293593,-21.740863365901, , , , , , , , , , , , , , , , , , , , , , , , , , , , , , , , , , , , , , , , , , , , , , , , , , , , , , , , , , , , ,
-56.2126017485365,-52.517554124837,3.69504762369966,40.1960452037903,-59.980465655169,-79.0166195139625,-117.194143292953,-125.95098487666,-111.717528297419,54.3650779366868,-29.9538246861184,-24.411253250569, , , , , , , , , , , , , , , , , , , , , , , , , , , , , , , , , , , , , , , , , , , , , , , , , , , , , , , , , , , , ,
-58.1868940378581,-56.0178193444865,2.16907469337176,41.7217707003386,-62.7147696029736,-79.0166195139625,-124.989286882801,-130.587850918091,-114.643643512122,57.1023566911723,-30.1779843656152,-26.9243723255577, , , , , , , , , , , , , , , , , , , , , , , , , , , , , , , , , , , , , , , , , , , , , , , , , , , , , , , , , , , , ,
-60.4860563034678,-59.246919823566,1.23913647990194,43.1614718515524,-65.2293424914212,-79.0166195139625,-126.710090263296,-134.878584129048,-117.348745441229,59.8664880635169,-30.8625963916852,-29.0038916718324, , , , , , , , , , , , , , , , , , , , , , , , , , , , , , , , , , , , , , , , , , , , , , , , , , , , , , , , , , , , ,
-62.7543790641841,-62.7246006893368,0.0297783748475027,44.4951978942064,-67.7750587861883,-79.0166195139625,-127.818400824512,-138.844517925764,-119.528000861883,62.7394898767604,-31.3920787195161,-31.347411157245, , , , , , , , , , , , , , , , , , , , , , , , , , , , , , , , , , , , , , , , , , , , , , , , , , , , , , , , , , , , ,
-64.7718045661767,-65.7398834465764,-0.968078880399581,45.7066311537868,-70.0556542031952,-79.0166195139625,-128.88403429423,-142.507372341257,-121.875007943553,65.2558440063765,-31.9018628428888,-33.3539811634883, , , , , , , , , , , , , , , , , , , , , , , , , , , , , , , , , , , , , , , , , , , , , , , , , , , , , , , , , , , , ,
-66.8601928839262,-68.4375013876886,-1.57730850376227,46.7837657778426,-72.5016872409083,-79.0166195139625,-132.094531197605,-145.888812260078,-124.0883727946,67.6488471358074,-32.6414421900822,-35.0074049457258, , , , , , , , , , , , , , , , , , , , , , , , , , , , , , , , , , , , , , , , , , , , , , , , , , , , , , , , , , , , ,
-68.8445006828253,-70.6413087400249,-1.79680805719945,47.7458004112255,-74.6415497994406,-79.0166195139625,-135.763877595717,-149.010151358002,-126.148138790968,69.7429047114251,-33.5238463128132,-36.2190583986125, , , , , , , , , , , , , , , , , , , , , , , , , , , , , , , , , , , , , , , , , , , , , , , , , , , , , , , , , , , , ,
-70.6551437415583,-73.4277296954181,-2.77258595385958,48.7213229215612,-76.7391674715618,-79.0166195139625,-136.423603247094,-151.89217246474,-128.06509724171,72.0414367184882,-33.9412788938496,-38.1001578246392, , , , , , , , , , , , , , , , , , , , , , , , , , , , , , , , , , , , , , , , , , , , , , , , , , , , , , , , , , , , ,
-72.4947475747432,-75.5559446367058,-3.06119706196247,49.5505069688121,-79.0835777052569,-79.0166195139625,-137.067497914824,-154.555033558163,-129.847845706796,74.0253461057245,-34.7167752563906,-39.3085708493345, , , , , , , , , , , , , , , , , , , , , , , , , , , , , , , , , , , , , , , , , , , , , , , , , , , , , , , , , , , , ,
-74.1171541467451,-77.2806715559239,-3.16351740917863,50.2465239099237,-81.0970107574531,-79.0166195139625,-137.695042600498,-157.018231933014,-131.433319762393,75.6989128513344,-35.4768183687835,-40.2220944825516, , , , , , , , , , , , , , , , , , , , , , , , , , , , , , , , , , , , , , , , , , , , , , , , , , , , , , , , , , , , ,
-75.7317144660245,-79.4759288718863,-3.74421440586158,50.8260691555516,-83.37841884049,-79.0166195139625,-138.303960425211,-159.300600954662,-132.890984957054,77.6038216689554,-35.9937500300817,-41.6100716388743, , , , , , , , , , , , , , , , , , , , , , , , , , , , , , , , , , , , , , , , , , , , , , , , , , , , , , , , , , , , ,
-77.465376535797,-81.3613650897094,-3.89598855391218,51.2589511478765,-85.3147789600028,-79.0166195139625,-138.890478614997,-161.420314106905,-134.314167791234,79.4133708127532,-36.7846939909427,-42.6286768218111, , , , , , , , , , , , , , , , , , , , , , , , , , , , , , , , , , , , , , , , , , , , , , , , , , , , , , , , , , , , ,
-78.9629198851283,-83.3734403216784,-4.41052043654988,51.6237495800525,-87.2044457390648,-79.0166195139625,-142.538681906681,-163.394873422467,-135.617080035171,81.1681801034033,-37.2761997242895,-43.8919803791145, , , , , , , , , , , , , , , , , , , , , , , , , , , , , , , , , , , , , , , , , , , , , , , , , , , , , , , , , , , , ,
-80.1572888670538,-84.6283328737693,-4.47104400671534,51.9788273092575,-89.2495745168153,-79.0166195139625,-143.081524683725,-165.24106464256,-136.805776629237,82.3928108704115,-37.8431224301695,-44.5496884402427, , , , , , , , , , , , , , , , , , , , , , , , , , , , , , , , , , , , , , , , , , , , , , , , , , , , , , , , , , , , ,
-81.6360490825169,-86.0490363502233,-4.41298726770631,52.2480679894703,-91.0115982931443,-79.0166195139625,-143.335796428298,-166.974866633889,-137.788523083956,83.8425427163701,-38.6115309074056,-45.2310118089652, , , , , , , , , , , , , , , , , , , , , , , , , , , , , , , , , , , , , , , , , , , , , , , , , , , , , , , , , , , , ,
-82.9992446775535,-87.2459513113215,-4.24670663376789,52.4499327126015,-92.7189080840117,-79.0166195139625,-143.5694146983,-168.611306064199,-138.708775667685,85.1225979944375,-39.3762690218931,-45.746328972545, , , , , , , , , , , , , , , , , , , , , , , , , , , , , , , , , , , , , , , , , , , , , , , , , , , , , , , , , , , , ,
-84.0074915164538,-88.8960895379303,-4.88859802147632,52.7414712431022,-94.3460906012106,-79.0166195139625,-143.779920249978,-168.611306064199,-139.584069594678,86.451790527192,-39.559446747489,-46.8923437797036, , , , , , , , , , , , , , , , , , , , , , , , , , , , , , , , , , , , , , , , , , , , , , , , , , , , , , , , , , , , ,
-85.151958751066,-90.1790474421821,-5.02708869111589,53.0999894609441,-95.7306928401654,-79.0166195139625,-144.975678549242,-170.017972003257,-140.376836048691,87.6655030966241,-40.0624350299754,-47.6030680666493, , , , , , , , , , , , , , , , , , , , , , , , , , , , , , , , , , , , , , , , , , , , , , , , , , , , , , , , , , , , ,
-86.0969666332653,-91.3388447198324,-5.24187808656696,53.3487457549553,-97.118096095948,-79.0166195139625,-146.441218933093,-171.41188827888,-141.099072588606,88.7179056765489,-40.4275442733494,-48.2903614032, , , , , , , , , , , , , , , , , , , , , , , , , , , , , , , , , , , , , , , , , , , , , , , , , , , , , , , , , , , , ,
-86.9904849495783,-92.763735960649,-5.77325101107052,53.7878616992353,-98.4080066903735,-79.0166195139625,-146.441218933093,-172.776527043489,-141.762996608013,89.8771104551137,-40.6086169692542,-49.2684934858601, , , , , , , , , , , , , , , , , , , , , , , , , , , , , , , , , , , , , , , , , , , , , , , , , , , , , , , , , , , , ,
-87.7668641338343,-93.9908161533515,-6.22395201951704,54.1875972013678,-99.538819205769,-79.0166195139625,-146.441218933093,-174.018535288356,-142.247813387198,90.8788401435929,-40.7714560571589,-50.1073840864346, , , , , , , , , , , , , , , , , , , , , , , , , , , , , , , , , , , , , , , , , , , , , , , , , , , , , , , , , , , , ,
-88.3411656431884,-95.0094579273703,-6.66829228418165,54.7062176595331,-100.44575764491,-79.0166195139625,-146.441218933093,-175.292342154117,-142.710829782546,91.6753117852793,-40.8364366795037,-50.8388751057763, , , , , , , , , , , , , , , , , , , , , , , , , , , , , , , , , , , , , , , , , , , , , , , , , , , , , , , , , , , , ,
-88.868866132939,-96.4065931926409,-7.53772705970172,55.3367770577907,-101.182189445384,-79.0166195139625,-146.441218933093,-176.536812213653,-143.254022682675,92.63772966279,-40.6655695366189,-51.9721601261717, , , , , , , , , , , , , , , , , , , , , , , , , , , , , , , , , , , , , , , , , , , , , , , , , , , , , , , , , , , , ,
-89.3306398711918,-97.5708951044505,-8.24025523325857,55.8402595443728,-101.98423812831,-79.0166195139625,-146.441218933093,-177.74096727217,-143.784934721212,93.4507674878212,-40.5451923189669,-52.9055751688549, , , , , , , , , , , , , , , , , , , , , , , , , , , , , , , , , , , , , , , , , , , , , , , , , , , , , , , , , , , , ,
-89.6775071760486,-98.4828218683918,-8.80531469234304,56.5451396421509,-102.382683288528,-79.0166195139625,-146.441218933093,-178.911896728941,-144.311317603589,94.0801645222201,-40.436096241853,-53.6440682803677, , , , , , , , , , , , , , , , , , , , , , , , , , , , , , , , , , , , , , , , , , , , , , , , , , , , , , , , , , , , ,
-90.0503167798695,-99.5749381104599,-9.52462133059029,57.1746208430317,-102.720224705636,-79.0166195139625,-146.441218933093,-180.024413807729,-144.838723824135,94.8126274451647,-40.2628477246399,-54.5497797205255, , , , , , , , , , , , , , , , , , , , , , , , , , , , , , , , , , , , , , , , , , , , , , , , , , , , , , , , , , , , ,
-90.2716914954559,-100.435881646682,-10.1641901512262,57.8819084771477,-103.003967392663,-79.0166195139625,-146.441218933093,-181.165239358258,-145.370394433008,95.3537865710691,-40.0537506721152,-55.3000358989545, , , , , , , , , , , , , , , , , , , , , , , , , , , , , , , , , , , , , , , , , , , , , , , , , , , , , , , , , , , , ,
-90.5608724519182,-101.381711758471,-10.8208393065527,58.6023503539765,-103.06250398416,-79.0166195139625,-146.441218933093,-182.161090117023,-145.687511203622,95.9712921051946,-39.870016572683,-56.1012755325122, , , , , , , , , , , , , , , , , , , , , , , , , , , , , , , , , , , , , , , , , , , , , , , , , , , , , , , , , , , , ,
-90.778855942813,-102.132686009384,-11.3538300665707,59.2032739841401,-103.112248634519,-79.0166195139625,-146.441218933093,-183.092553397006,-146.151075381647,96.4557709760984,-39.7125129381214,-56.7432580379776, , , , , , , , , , , , , , , , , , , , , , , , , , , , , , , , , , , , , , , , , , , , , , , , , , , , , , , , , , , , ,
-91.0525267879328,-102.848632235338,-11.7961054474047,59.8606817739504,-102.947996089272,-79.0166195139625,-146.441218933093,-183.941129857125,-146.399151966965,96.9505795116352,-39.6282106702643,-57.3223688413715, , , , , , , , , , , , , , , , , , , , , , , , , , , , , , , , , , , , , , , , , , , , , , , , , , , , , , , , , , , , ,
-91.2490558234971,-103.04112589415,-11.7920700706529,60.4170865513255,-102.717492853625,-79.0166195139625,-146.441218933093,-184.732977973229,-146.64912607223,97.1450908588236,-39.7284928764224,-57.4165979824019, , , , , , , , , , , , , , , , , , , , , , , , , , , , , , , , , , , , , , , , , , , , , , , , , , , , , , , , , , , , ,
-91.5043381019307,-103.221969079549,-11.7176309776185,60.9645972881097,-102.449260193338,-79.0166195139625,-146.441218933093,-185.407051857865,-146.897024587863,97.36315359074,-39.8933535621563,-57.4698000285843, , , , , , , , , , , , , , , , , , , , , , , , , , , , , , , , , , , , , , , , , , , , , , , , , , , , , , , , , , , , ,
-91.6942354510178,-101.899119626308,-10.2048841752896,61.4852962574847,-102.177173971355,-79.0166195139625,-146.441218933093,-186.055862851685,-147.137825353256,96.7966775386626,-40.7446756378644,-56.0520019007989, , , , , , , , , , , , , , , , , , , , , , , , , , , , , , , , , , , , , , , , , , , , , , , , , , , , , , , , , , , , ,
-91.7817846947972,-101.731651971926,-9.94986727712855,61.9058282286454,-101.783017061517,-80.7702726888317,-146.441218933093,-186.547208689923,-147.36601165092,96.7567183333615,-40.9159587088346,-55.8407596245276, , , , , , , , , , , , , , , , , , , , , , , , , , , , , , , , , , , , , , , , , , , , , , , , , , , , , , , , , , , , ,
-92.0218193984007,-101.453787200229,-9.43196780182821,62.236431106904,-101.467909858232,-82.475535488016,-146.441218933093,-186.951389468909,-147.576107807767,96.7378032993148,-41.2949257982865,-55.442877501029, , , , , , , , , , , , , , , , , , , , , , , , , , , , , , , , , , , , , , , , , , , , , , , , , , , , , , , , , , , , ,
-92.1822827501755,-100.92229544342,-8.74001269324403,62.5134312316244,-101.031767707765,-84.1216585718594,-146.441218933093,-187.468924118884,-147.763152440962,96.5522890967976,-41.721135028466,-54.8311540683322, , , , , , , , , , , , , , , , , , , , , , , , , , , , , , , , , , , , , , , , , , , , , , , , , , , , , , , , , , , , ,
-92.3633800520863,-100.159251935151,-7.7958718830649,62.6849094645935,-100.61443736505,-85.696551493633,-146.441218933093,-187.870610318772,-147.923086478781,96.2613159936188,-42.283754084511,-53.9775619091085, , , , , , , , , , , , , , , , , , , , , , , , , , , , , , , , , , , , , , , , , , , , , , , , , , , , , , , , , , , , ,
-92.2371697339458,-99.1939482391815,-6.95677850523551,62.8359598169262,-100.33028195457,-87.1872394836728,-146.441218933093,-188.022040700201,-148.053054418923,95.7155589865637,-42.6401956143554,-53.0753633722089, , , , , , , , , , , , , , , , , , , , , , , , , , , , , , , , , , , , , , , , , , , , , , , , , , , , , , , , , , , , ,
-92.3318131310972,-97.9881247035826,-5.65631157248523,62.8653830493275,-99.9810173489523,-88.5804305480147,-146.441218933093,-188.609988318571,-148.151630373911,95.1599689173399,-43.3377507793063,-51.8222181380342, , , , , , , , , , , , , , , , , , , , , , , , , , , , , , , , , , , , , , , , , , , , , , , , , , , , , , , , , , , , ,
-92.1092795092339,-96.8430620289034,-4.73378251966934,62.9057727455725,-99.741836897518,-89.8632089633218,-146.441218933093,-188.631168180652,-148.218982355839,94.4761707690687,-43.6877484947826,-50.7884222742867, , , , , , , , , , , , , , , , , , , , , , , , , , , , , , , , , , , , , , , , , , , , , , , , , , , , , , , , , , , , ,
-92.0868408280083,-95.6295920408504,-3.54275121284191,62.8332470995064,-99.4810158185876,-91.0238471176406,-146.441218933093,-188.707457624163,-148.256982126022,93.8582164344294,-44.2720448075835,-49.5861716268465, , , , , , , , , , , , , , , , , , , , , , , , , , , , , , , , , , , , , , , , , , , , , , , , , , , , , , , , , , , , ,
-91.9863351803796,-94.260094568733,-2.27375938835316,62.7833040044253,-99.2884506105027,-92.0527003016516,-146.441218933093,-188.646912731322,-148.269258729476,93.1232148745563,-44.8562878960135,-48.2669269785434, , , , , , , , , , , , , , , , , , , , , , , , , , , , , , , , , , , , , , , , , , , , , , , , , , , , , , , , , , , , ,
-91.5966539661209,-92.9239991201218,-1.32734515400076,62.6635726282415,-99.0924213500673,-92.9431262720457,-146.441218933093,-188.71189014732,-148.261185288304,92.2603265431214,-45.1346544060604,-47.1256721370616, , , , , , , , , , , , , , , , , , , , , , , , , , , , , , , , , , , , , , , , , , , , , , , , , , , , , , , , , , , , ,
-91.4157748973407,-91.6118152394704,-0.196040342129571,62.5656857684818,-98.9207227987008,-93.6923564278154,-146.441218933093,-188.976194610302,-148.239782011068,91.5137950684055,-45.6098672776058,-45.9039277908003, , , , , , , , , , , , , , , , , , , , , , , , , , , , , , , , , , , , , , , , , , , , , , , , , , , , , , , , , , , , ,
-91.2320706643681,-90.0598803638006,1.17219030056763,62.4541446092909,-98.9414926702664,-94.3022374657137,-146.671553743072,-188.907029711219,-148.213513562282,90.6459755140844,-46.2021304824681,-44.4438450316168, , , , , , , , , , , , , , , , , , , , , , , , , , , , , , , , , , , , , , , , , , , , , , , , , , , , , , , , , , , , ,
-90.9985800856767,-88.8109248092621,2.18765527641475,62.3226388621921,-99.1975824858417,-94.7797612164652,-147.009394477463,-188.862595858979,-148.191957558339,89.9047524474694,-46.593117681046,-43.311634766424, , , , , , , , , , , , , , , , , , , , , , , , , , , , , , , , , , , , , , , , , , , , , , , , , , , , , , , , , , , , ,
-90.7246984722002,-87.6718109163869,3.05288755581345,62.2197764737176,-99.4124972910891,-95.1373076597877,-147.353039879364,-188.857823553749,-148.185326438796,89.1982546942935,-46.8887930140071,-42.3094616802871, , , , , , , , , , , , , , , , , , , , , , , , , , , , , , , , , , , , , , , , , , , , , , , , , , , , , , , , , , , , ,
-90.4226043145263,-86.5958913527404,3.82671296178601,62.1238256220266,-99.5697281294918,-95.3925425215516,-147.723117161467,-188.905865477045,-148.203839059968,88.5092478336333,-47.1246586381564,-41.3845891954775, , , , , , , , , , , , , , , , , , , , , , , , , , , , , , , , , , , , , , , , , , , , , , , , , , , , , , , , , , , , ,
-90.1068459592282,-85.5777775980271,4.52906836120125,62.0540170403709,-99.6573576296983,-95.5679349032278,-148.139914583991,-189.018296665107,-148.256960421162,87.8423117786276,-47.317957160215,-40.5243546184133, , , , , , , , , , , , , , , , , , , , , , , , , , , , , , , , , , , , , , , , , , , , , , , , , , , , , , , , , , , , ,
-89.7937397331168,-84.5668004836309,5.22693924948599,61.5867886775612,-99.6691312863645,-95.6898907546086,-148.622730597841,-189.204355165147,-148.352556317829,87.1802701083738,-47.5103394913016,-39.6699306170728, , , , , , , , , , , , , , , , , , , , , , , , , , , , , , , , , , , , , , , , , , , , , , , , , , , , , , , , , , , , ,
-89.5006408633467,-83.7722297679486,5.72841109539824,61.068059585425,-99.6051335449993,-95.7875350256788,-149.189131603716,-189.470143897058,-148.49604073555,86.6364353156476,-47.6145259793727,-39.0219093362755, , , , , , , , , , , , , , , , , , , , , , , , , , , , , , , , , , , , , , , , , , , , , , , , , , , , , , , , , , , , ,
-89.2451659254949,-82.96145955416,6.28370637133501,60.8229489311717,-99.4720144333194,-95.8912180491534,-149.854151966203,-189.817874237409,-148.689620043697,86.1033127398274,-47.7644361484152,-38.3388765914128, , , , , , , , , , , , , , , , , , , , , , , , , , , , , , , , , , , , , , , , , , , , , , , , , , , , , , , , , , , , ,
-89.0444386641925,-82.315435248386,6.72900341580667,60.7856948448312,-99.2827271668719,-96.0308624871859,-150.629488651182,-190.245244800043,-148.931748461207,85.6799369562892,-47.8867210399998,-37.79321591629, , , , , , , , , , , , , , , , , , , , , , , , , , , , , , , , , , , , , , , , , , , , , , , , , , , , , , , , , , , , ,
-88.9144048704122,-81.8648162034058,7.04958866700654,60.75454736883,-99.0557656809931,-96.234292596768,-151.522749796224,-190.745046259342,-149.216892415861,85.389610536909,-47.9819967687096,-37.4076137682, , , , , , , , , , , , , , , , , , , , , , , , , , , , , , , , , , , , , , , , , , , , , , , , , , , , , , , , , , , , ,
-88.8692297220366,-81.4051210124628,7.46410870957389,60.6826751762154,-98.813937086579,-96.525687763349,-152.536814028625,-191.305064885349,-149.535654483715,85.1371753672497,-48.1666692158055,-36.9705061514448, , , , , , , , , , , , , , , , , , , , , , , , , , , , , , , , , , , , , , , , , , , , , , , , , , , , , , , , , , , , ,
-88.9207676810727,-80.6756296026172,8.24513807845572,60.622171495184,-98.5827565294942,-96.9242775172868,-153.439017454557,-191.908328220797,-149.87524375242,84.7981986418449,-48.5829528797645,-36.2152457620811, , , , , , , , , , , , , , , , , , , , , , , , , , , , , , , , , , , , , , , , , , , , , , , , , , , , , , , , , , , , ,
-89.0780903104586,-80.4718407351786,8.60624957528015,60.5812741701276,-98.3885944411859,-97.4433536471922,-154.489579515313,-192.533700364599,-150.220221700943,84.7749655228186,-48.8421699428697,-35.9327955799496, , , , , , , , , , , , , , , , , , , , , , , , , , , , , , , , , , , , , , , , , , , , , , , , , , , , , , , , , , , , ,
-89.3470706647976,-80.2812115646082,9.06585910018956,60.550300718629,-98.0128628415919,-98.0896289855864,-155.684941253144,-193.156796351065,-150.553419253286,84.8141411147028,-49.2064648824938,-35.6076762322096, , , , , , , , , , , , , , , , , , , , , , , , , , , , , , , , , , , , , , , , , , , , , , , , , , , , , , , , , , , , ,
-89.7300433156694,-79.9884166650625,9.74162665060712,60.4593312568398,-97.7305555124858,-98.8629364128917,-156.827839472705,-193.751153287733,-150.856917139405,84.8592299903659,-49.7358349831386,-35.123395007228, , , , , , , , , , , , , , , , , , , , , , , , , , , , , , , , , , , , , , , , , , , , , , , , , , , , , , , , , , , , ,
-90.2255713458929,-79.7732296781753,10.4523416677177,60.4217248171582,-97.7296579272263,-99.7562454684746,-158.235346510814,-194.289577240815,-151.113002330827,84.9994005120341,-50.3389565068056,-34.6604440052291, , , , , , , , , , , , , , , , , , , , , , , , , , , , , , , , , , , , , , , , , , , , , , , , , , , , , , , , , , , , ,
-90.828346948634,-79.5927341741469,11.2356127744872,60.3339927186449,-97.8369378712903,-100.75597629745,-159.453238988922,-194.745577918582,-151.30504494694,85.2105405613904,-51.0319798615608,-34.1785606998302, , , , , , , , , , , , , , , , , , , , , , , , , , , , , , , , , , , , , , , , , , , , , , , , , , , , , , , , , , , , ,
-91.5292350278251,-79.5777332775604,11.9515017502648,60.4234182232523,-98.0596504403525,-101.842599574147,-160.868326660022,-195.094800351459,-151.418267809536,85.5534841526927,-51.7403683890452,-33.8131157636481, , , , , , , , , , , , , , , , , , , , , , , , , , , , , , , , , , , , , , , , , , , , , , , , , , , , , , , , , , , , ,
-92.3154527640512,-79.5863527883487,12.7290999757027,60.5617015120684,-98.3981577712325,-102.99151168601,-161.917213724272,-195.316359108171,-151.440395712366,85.9509027761999,-52.5222763698772,-33.4286264063233, , , , , , , , , , , , , , , , , , , , , , , , , , , , , , , , , , , , , , , , , , , , , , , , , , , , , , , , , , , , ,
-93.1708733285314,-79.6969746530824,13.4738986754491,60.6573567814083,-98.8459256797649,-104.174159759844,-163.20887060982,-195.393978594023,-151.362173590894,86.4339239908069,-53.3223860019905,-33.111537988817, , , , , , , , , , , , , , , , , , , , , , , , , , , , , , , , , , , , , , , , , , , , , , , , , , , , , , , , , , , , ,
-94.076449024847,-79.6190604122287,14.4573886126184,60.8480233026106,-99.3899788822726,-105.359368022993,-164.286242775534,-195.316850471364,-151.177738542755,86.8477547185378,-54.266918818733,-32.5808358998055, , , , , , , , , , , , , , , , , , , , , , , , , , , , , , , , , , , , , , , , , , , , , , , , , , , , , , , , , , , , ,
-95.0107590842532,-79.6034461815687,15.4073129026847,61.173562671075,-100.011749115413,-106.514799334125,-165.302718255628,-195.080143713569,-150.884828141143,87.3071026329109,-55.2090359934692,-32.0980666394423, , , , , , , , , , , , , , , , , , , , , , , , , , , , , , , , , , , , , , , , , , , , , , , , , , , , , , , , , , , , ,
-95.9506911838756,-79.7704108659753,16.1802803179005,61.6061203326775,-100.688232863349,-107.608478684205,-166.234129679365,-194.685142730225,-150.484811668026,87.8605510249254,-56.0654857508883,-31.7950652740377, , , , , , , , , , , , , , , , , , , , , , , , , , , , , , , , , , , , , , , , , , , , , , , , , , , , , , , , , , , , ,
-96.8722622666159,-79.9698387220462,16.9024235445698,61.9518864874541,-101.393363439248,-108.610301404799,-167.102996148002,-194.139029948138,-149.982540334246,88.4210504943311,-56.8873429055931,-31.5337075887386, , , , , , , , , , , , , , , , , , , , , , , , , , , , , , , , , , , , , , , , , , , , , , , , , , , , , , , , , , , , ,
-97.7515757365493,-80.2172148908742,17.5343608456753,62.4298131132378,-102.099494406898,-109.215912903315,-167.7669725542,-193.454355445343,-149.386022856696,88.9843953137117,-57.6429682911126,-31.3414270225998, , , , , , , , , , , , , , , , , , , , , , , , , , , , , , , , , , , , , , , , , , , , , , , , , , , , , , , , , , , , ,
-98.5658956041549,-80.4406590742554,18.1252365298997,62.9733581860317,-101.862680106037,-109.700731845677,-168.252619902811,-192.648246371995,-148.705943011574,89.5032773392051,-58.3455660670276,-31.1577112721782, , , , , , , , , , , , , , , , , , , , , , , , , , , , , , , , , , , , , , , , , , , , , , , , , , , , , , , , , , , , ,
-99.2947896900417,-80.6919772005465,18.6028124894954,63.6582802772228,-102.431051579486,-109.765893503683,-168.491236464762,-191.741413464665,-147.95504795884,89.9933834452941,-58.9488010897688,-31.0445823555259, , , , , , , , , , , , , , , , , , , , , , , , , , , , , , , , , , , , , , , , , , , , , , , , , , , , , , , , , , , , ,
-99.9212613914335,-80.7717750983227,19.149486293111,64.2906537306161,-102.997886291163,-110.049697648284,-168.556832593689,-190.757018061671,-147.147450066733,90.3465182448781,-59.5353738422725,-30.8111444026062, , , , , , , , , , , , , , , , , , , , , , , , , , , , , , , , , , , , , , , , , , , , , , , , , , , , , , , , , , , , ,
-100.432770579952,-81.0015956563405,19.4311749236112,65.009294754706,-103.482268848302,-109.993294177321,-168.46174818998,-189.719469380225,-146.29789750762,90.717183118146,-59.9319727517817,-30.785210366365, , , , , , , , , , , , , , , , , , , , , , , , , , , , , , , , , , , , , , , , , , , , , , , , , , , , , , , , , , , , ,
-100.822049898238,-81.1879300674139,19.6341198308244,65.7106978806054,-103.867247430629,-109.793909378129,-168.139149282586,-188.653224930361,-145.42107634195,91.004989982826,-60.2280848645315,-30.7769051182951, , , , , , , , , , , , , , , , , , , , , , , , , , , , , , , , , , , , , , , , , , , , , , , , , , , , , , , , , , , , ,
-101.087648256401,-81.3230575057685,19.7645907506326,66.4965086132419,-104.140133531292,-109.623985233719,-167.632633692243,-187.581664815927,-144.531006352199,91.2053528810847,-60.426119503517,-30.7792333775683, , , , , , , , , , , , , , , , , , , , , , , , , , , , , , , , , , , , , , , , , , , , , , , , , , , , , , , , , , , , ,
-101.234165794657,-81.4826531663873,19.7515126282694,67.2791327157996,-104.292726474068,-109.222757604331,-166.988714774004,-186.526102825156,-143.640582869738,91.3584094805219,-60.4928392114633,-30.8655702690593, , , , , , , , , , , , , , , , , , , , , , , , , , , , , , , , , , , , , , , , , , , , , , , , , , , , , , , , , , , , ,
-101.272173798429,-81.4442805441634,19.8278932542654,67.9620618817238,-104.32121236942,-108.724799331738,-166.224657347206,-185.504985237733,-142.761296394989,91.358227171296,-60.5500335263473,-30.8081936449493, , , , , , , , , , , , , , , , , , , , , , , , , , , , , , , , , , , , , , , , , , , , , , , , , , , , , , , , , , , , ,
-101.217834085513,-81.5093046950167,19.7085293904965,68.3483906925477,-104.225751913917,-108.019507848968,-165.331827838332,-184.533315000904,-141.903132251526,91.3635693902649,-60.4631817380051,-30.9003876522604, , , , , , , , , , , , , , , , , , , , , , , , , , , , , , , , , , , , , , , , , , , , , , , , , , , , , , , , , , , , ,
-101.092242711183,-81.5790709484843,19.5131717626984,68.9017219683447,-104.009811891536,-107.266175380727,-164.443405090959,-183.622325059253,-141.074620562457,91.3356568298334,-60.3027072369408,-31.0329495928933, , , , , , , , , , , , , , , , , , , , , , , , , , , , , , , , , , , , , , , , , , , , , , , , , , , , , , , , , , , , ,
-100.920522455258,-81.6079744152969,19.3125480399609,69.7469953842436,-103.67932630548,-106.468008600594,-163.402306060674,-182.779407671805,-140.282983029564,91.2642484352773,-60.1165352476095,-31.1477131876683, , , , , , , , , , , , , , , , , , , , , , , , , , , , , , , , , , , , , , , , , , , , , , , , , , , , , , , , , , , , ,
-100.730683651985,-81.8203948427629,18.9102888092223,70.6360069137778,-102.896691653527,-105.643144602086,-162.32762192104,-182.008285026749,-139.534313723174,91.2755392473739,-59.8204862306039,-31.4550530167706, , , , , , , , , , , , , , , , , , , , , , , , , , , , , , , , , , , , , , , , , , , , , , , , , , , , , , , , , , , , ,
-100.552274617659,-82.1462378021863,18.4060368154725,71.4984804721317,-102.2846049014,-104.850912000822,-161.251344377391,-181.309383500572,-138.833734794186,91.3492562099224,-59.4791557165658,-31.8701004933573, , , , , , , , , , , , , , , , , , , , , , , , , , , , , , , , , , , , , , , , , , , , , , , , , , , , , , , , , , , , ,
-100.414857983654,-82.4261428025991,17.9887151810551,72.4573423064404,-101.707889666611,-103.942975469497,-160.187806874958,-180.680354916557,-138.185480400845,91.4205003931266,-59.2017865823549,-32.2187138107723, , , , , , , , , , , , , , , , , , , , , , , , , , , , , , , , , , , , , , , , , , , , , , , , , , , , , , , , , , , , ,
-100.346374805534,-82.982944655804,17.3634301497297,73.4368357149707,-101.037939285985,-103.00421572751,-159.184392019648,-180.116677256411,-137.59288137612,91.6646597306688,-58.8549024776319,-32.8097572530375, , , , , , , , , , , , , , , , , , , , , , , , , , , , , , , , , , , , , , , , , , , , , , , , , , , , , , , , , , , , ,
-100.371487922161,-83.6072389947565,16.7642489274045,74.4324313279993,-100.280714956858,-102.030067989351,-158.219340202363,-179.612266897717,-137.058248420193,91.9893634584586,-58.5678684247829,-33.4214950336764, , , , , , , , , , , , , , , , , , , , , , , , , , , , , , , , , , , , , , , , , , , , , , , , , , , , , , , , , , , , ,
-100.510023719658,-84.4493130834883,16.0607106361701,75.527492109289,-99.4416783597942,-101.111880968647,-157.311353007446,-179.16004505713,-136.582679249254,92.4796684015732,-58.2853671779144,-34.1943012236595, , , , , , , , , , , , , , , , , , , , , , , , , , , , , , , , , , , , , , , , , , , , , , , , , , , , , , , , , , , , ,
-100.775647089014,-85.3660142898414,15.4096327991726,76.5417256528038,-98.5258104568555,-100.239553178963,-156.48739006333,-178.752419968765,-136.165838410381,93.0708306894276,-58.0926399440935,-34.9781907453347, , , , , , , , , , , , , , , , , , , , , , , , , , , , , , , , , , , , , , , , , , , , , , , , , , , , , , , , , , , , ,
-101.174895121039,-86.6042723198627,14.5706228011765,77.7027080135025,-97.5378242772245,-99.4816838224856,-155.746758566925,-178.381667495138,-135.805770702632,93.8895837204509,-57.8727589611081,-36.0168247593435, , , , , , , , , , , , , , , , , , , , , , , , , , , , , , , , , , , , , , , , , , , , , , , , , , , , , , , , , , , , ,
-101.706658250269,-88.041699927973,13.664958322296,78.7568737257499,-96.482546309431,-98.837859393577,-155.121575590639,-178.040209094998,-135.498806789828,94.8741790891209,-57.6858082862827,-37.1883708028388, , , , , , , , , , , , , , , , , , , , , , , , , , , , , , , , , , , , , , , , , , , , , , , , , , , , , , , , , , , , ,
-102.362146471258,-89.5446306620495,12.8175158092091,79.9559018611559,-95.3654211796268,-98.2390600338943,-154.597185798686,-177.720793257556,-135.239603185544,95.953388566654,-57.5898311402341,-38.3635574264205, , , , , , , , , , , , , , , , , , , , , , , , , , , , , , , , , , , , , , , , , , , , , , , , , , , , , , , , , , , , ,
-103.125331410218,-91.2743596938642,11.8509717163539,81.1038646779522,-94.1930764058725,-97.6961518539736,-154.299642679269,-177.41658891336,-135.021333030551,97.1998455520411,-57.4881515632862,-39.7116939887555, , , , , , , , , , , , , , , , , , , , , , , , , , , , , , , , , , , , , , , , , , , , , , , , , , , , , , , , , , , , ,
-103.973822282863,-93.0727633801128,10.9010589027507,82.0856766861742,-92.9738691146133,-97.0807338269485,-154.140845242156,-177.1212069728,-134.836017004047,98.523292831488,-57.4374405928073,-41.0858522386814, , , , , , , , , , , , , , , , , , , , , , , , , , , , , , , , , , , , , , , , , , , , , , , , , , , , , , , , , , , , ,
-104.880113483839,-94.8915117780491,9.98860170578954,83.1054269409052,-91.7183265727406,-96.4115848343238,-153.993453847671,-176.828682814094,-134.674962696131,99.8858126309438,-57.4343575948143,-42.4514550361301, , , , , , , , , , , , , , , , , , , , , , , , , , , , , , , , , , , , , , , , , , , , , , , , , , , , , , , , , , , , ,
-105.813126607487,-96.6788116331843,9.13431497430324,84.0429320854958,-90.4393912830917,-95.8055345121648,-153.906718535717,-176.533468659796,-134.529267904966,101.245969120336,-57.4737207908956,-43.7722483294409, , , , , , , , , , , , , , , , , , , , , , , , , , , , , , , , , , , , , , , , , , , , , , , , , , , , , , , , , , , , ,
-106.739953997953,-98.3823740383671,8.35757995958623,84.8757910384494,-89.1523951617144,-95.0935151927631,-153.864772382957,-176.230485943545,-134.390336195524,102.56116401816,-57.54876697877,-45.0123970393908, , , , , , , , , , , , , , , , , , , , , , , , , , , , , , , , , , , , , , , , , , , , , , , , , , , , , , , , , , , , ,
-107.627694497297,-99.9524940290446,7.67520046825249,85.5611775395099,-87.8747187158329,-94.435790879624,-153.847714793561,-175.915268763556,-134.25035035348,103.790094263171,-57.651447482775,-46.1386467803964, , , , , , , , , , , , , , , , , , , , , , , , , , , , , , , , , , , , , , , , , , , , , , , , , , , , , , , , , , , , ,
-108.445263148277,-101.345020348977,7.10024279929949,86.1462927248361,-86.6251358072391,-93.7884766368886,-154.028682932304,-175.584197816615,-134.102653802179,104.895141748627,-57.7727529737883,-47.1223887748392, , , , , , , , , , , , , , , , , , , , , , , , , , , , , , , , , , , , , , , , , , , , , , , , , , , , , , , , , , , , ,
-109.165064659685,-102.524010000528,6.641054659157,86.7001967844206,-85.4228939803614,-93.1521046699793,-154.147488645145,-175.234792297228,-133.942004800847,105.844537330106,-57.9030596594211,-47.9414776706858, , , , , , , , , , , , , , , , , , , , , , , , , , , , , , , , , , , , , , , , , , , , , , , , , , , , , , , , , , , , ,
-109.764444002653,-103.463894134972,6.30054986768145,86.9800833183643,-84.2866245694775,-92.5447746989926,-154.162183256153,-174.866004266349,-133.764691432428,106.614169068813,-58.0324969351676,-48.5816721336456, , , , , , , , , , , , , , , , , , , , , , , , , , , , , , , , , , , , , , , , , , , , , , , , , , , , , , , , , , , , ,
-110.2268535734,-104.151022969678,6.07583060372182,87.3255087630613,-83.2332038930543,-91.8302236204734,-154.196270510245,-174.478450283314,-133.568519623667,107.188938271539,-58.151342088561,-49.0375961829784, , , , , , , , , , , , , , , , , , , , , , , , , , , , , , , , , , , , , , , , , , , , , , , , , , , , , , , , , , , , ,
-110.542693844937,-104.584505432371,5.95818841256679,87.5357033413878,-82.2766870453684,-91.1425753836047,-154.139909540095,-174.074521751907,-133.352703845057,107.563599638654,-58.2504411287523,-49.3131585099023, , , , , , , , , , , , , , , , , , , , , , , , , , , , , , , , , , , , , , , , , , , , , , , , , , , , , , , , , , , , ,
-110.70979410213,-104.776310240951,5.93348386117916,87.6341445432805,-81.4274112497754,-90.3697921917674,-154.098225709467,-173.658339841061,-133.117696558365,107.74305217154,-58.3216389816547,-49.4214131898861, , , , , , , , , , , , , , , , , , , , , , , , , , , , , , , , , , , , , , , , , , , , , , , , , , , , , , , , , , , , ,
-110.733510163239,-104.750641426559,5.98286873668017,87.7307956757762,-80.6913312702646,-89.7925920384328,-154.033232077088,-173.235556680696,-133.108167857691,107.742075794899,-58.35818944996,-49.3838863449399, , , , , , , , , , , , , , , , , , , , , , , , , , , , , , , , , , , , , , , , , , , , , , , , , , , , , , , , , , , , ,
-110.62643324982,-104.542636898603,6.08379635121677,87.818458464575,-80.0696195509852,-89.2543669124898,-153.892274901661,-172.813037362174,-132.886206900887,107.584535074212,-58.3551148005187,-49.2294202736937, , , , , , , , , , , , , , , , , , , , , , , , , , , , , , , , , , , , , , , , , , , , , , , , , , , , , , , , , , , , ,
-110.407727444979,-104.196465072023,6.21126237295588,87.9398899325225,-79.0688723314056,-88.5682940899444,-153.711672765015,-172.398474101451,-132.613604320996,107.302096258501,-58.3094949089676,-48.992601349534, , , , , , , , , , , , , , , , , , , , , , , , , , , , , , , , , , , , , , , , , , , , , , , , , , , , , , , , , , , , ,
-110.102135289432,-103.762917914636,6.33921737479645,88.0860810685091,-78.3313561260982,-88.2972515146823,-153.449471383927,-171.999981946517,-132.346327602154,106.932526602034,-58.2206763321146,-48.71185026992, , , , , , , , , , , , , , , , , , , , , , , , , , , , , , , , , , , , , , , , , , , , , , , , , , , , , , , , , , , , ,
-109.73870421399,-103.296621552044,6.44208266194645,88.2768345027713,-77.9599460399036,-87.8000977879885,-153.147122759212,-171.625711595091,-132.202948297432,106.517662883017,-58.0903934379686,-48.4272694450491, , , , , , , , , , , , , , , , , , , , , , , , , , , , , , , , , , , , , , , , , , , , , , , , , , , , , , , , , , , , ,
-109.349289971655,-102.85300567611,6.49628429554569,88.2610611312287,-77.6725302497439,-87.1612229625325,-152.901592620081,-171.283499530173,-131.934350019738,106.101147823883,-57.9227871336008,-48.1783606902824, , , , , , , , , , , , , , , , , , , , , , , , , , , , , , , , , , , , , , , , , , , , , , , , , , , , , , , , , , , , ,
-108.966895197276,-102.485189189954,6.4817060073219,88.2735125442417,-77.4524808702227,-86.70335551014,-152.647602207998,-170.980566035871,-131.727565213289,105.726042193615,-57.7243006022991,-48.0017415913164, , , , , , , , , , , , , , , , , , , , , , , , , , , , , , , , , , , , , , , , , , , , , , , , , , , , , , , , , , , , ,
-108.62391052029,-102.240952398746,6.3829581215446,88.3572660378432,-77.280726850662,-86.0949470998685,-152.457227327306,-170.723269337565,-131.607887016897,105.432431459518,-57.5034343209178,-47.928997138601, , , , , , , , , , , , , , , , , , , , , , , , , , , , , , , , , , , , , , , , , , , , , , , , , , , , , , , , , , , , ,
-108.350342617604,-102.15997368792,6.19036892968419,88.5162122669684,-77.1367275493829,-85.5449498268563,-152.249340820563,-170.516925802739,-131.351539764949,105.255158152762,-57.2703557736442,-47.984802379118, , , , , , , , , , , , , , , , , , , , , , , , , , , , , , , , , , , , , , , , , , , , , , , , , , , , , , , , , , , , ,
-108.17213091269,-102.271505231701,5.90062568098868,88.7489499370744,-76.9995176289094,-85.0565974386768,-152.207374534496,-170.365705675753,-131.149922286565,105.221818072196,-57.0363782968396,-48.1854397753567, , , , , , , , , , , , , , , , , , , , , , , , , , , , , , , , , , , , , , , , , , , , , , , , , , , , , , , , , , , , ,
-108.109664737415,-102.592642327769,5.51702240964577,89.0493956162419,-76.8487387725341,-84.6321789547321,-152.140787169072,-170.272606606267,-131.084138022388,105.351153532592,-56.8133435735305,-48.537809959062, , , , , , , , , , , , , , , , , , , , , , , , , , , , , , , , , , , , , , , , , , , , , , , , , , , , , , , , , , , , ,
-108.176611491548,-103.127303576491,5.04930791505726,89.407682415365,-76.6655789699594,-84.2729955852117,-152.1753269524,-170.239494731726,-130.887153438814,105.651957534019,-56.6129597033029,-49.0389978307172, , , , , , , , , , , , , , , , , , , , , , , , , , , , , , , , , , , , , , , , , , , , , , , , , , , , , , , , , , , , ,
-108.379151212849,-103.865988521085,4.51316269176463,89.8112652750866,-76.4335538329299,-83.9792310762771,-152.319334722358,-170.267190948521,-130.735387864854,106.122569866967,-56.4461569523072,-49.6764129146604, , , , , , , , , , , , , , , , , , , , , , , , , , , , , , , , , , , , , , , , , , , , , , , , , , , , , , , , , , , , ,
-108.715682384876,-104.786322204628,3.92936018024793,90.2461236851217,-76.0288741020354,-83.7497269787828,-152.576989049884,-170.355572093608,-130.649447177934,106.751002294752,-56.3225212825623,-50.4284810121905, , , , , , , , , , , , , , , , , , , , , , , , , , , , , , , , , , , , , , , , , , , , , , , , , , , , , , , , , , , , ,
-109.177020553027,-105.854339429354,3.32268112367249,90.6979357604672,-75.1030448433678,-83.581673921874,-152.947933184629,-170.503653928169,-130.421165414066,107.515679991191,-56.2498508383499,-51.2658291528413, , , , , , , , , , , , , , , , , , , , , , , , , , , , , , , , , , , , , , , , , , , , , , , , , , , , , , , , , , , , ,
-109.747065624285,-107.026412374791,2.72065324949424,91.1530971880999,-74.7412790064716,-83.4702494631349,-153.426968927538,-170.709625969898,-130.449725881159,108.386738999538,-56.2338594368899,-52.1528795626487, , , , , , , , , , , , , , , , , , , , , , , , , , , , , , , , , , , , , , , , , , , , , , , , , , , , , , , , , , , , ,
-110.403877673435,-108.251689287883,2.15218838555175,91.5994796829356,-74.2981874338682,-83.4082531714003,-154.003848361892,-170.97081772898,-130.361127705673,109.327783480659,-56.2780330294936,-53.0497504511661, , , , , , , , , , , , , , , , , , , , , , , , , , , , , , , , , , , , , , , , , , , , , , , , , , , , , , , , , , , , ,
-111.121079052948,-109.47489052467,1.64618852827787,92.0268660640069,-73.769143732899,-83.3858076156701,-154.66322014764,-171.283589539382,-130.240343655244,110.297984788809,-56.383633790613,-53.9143509981964, , , , , , , , , , , , , , , , , , , , , , , , , , , , , , , , , , , , , , , , , , , , , , , , , , , , , , , , , , , , ,
-111.869488115147,-110.639298291111,1.23018982403611,92.4270548048893,-73.1521785736263,-83.3902031881144,-155.384798235809,-171.643156602278,-130.166632586874,111.254393203129,-56.549838969592,-54.704554233538, , , , , , , , , , , , , , , , , , , , , , , , , , , , , , , , , , , , , , , , , , , , , , , , , , , , , , , , , , , , ,
-112.618880263367,-111.805673690761,0.813206572606397,92.9380228772956,-72.1214293247567,-83.405960517244,-156.143813018664,-172.043371839477,-130.054085209122,112.212276977064,-56.716043417987,-55.4962335590776, , , , , , , , , , , , , , , , , , , , , , , , , , , , , , , , , , , , , , , , , , , , , , , , , , , , , , , , , , , , ,
-113.339762752477,-112.728068028887,0.611694723590269,93.4056410627048,-71.081326286163,-83.4151664352969,-156.911780771942,-172.476510466775,-129.989110018653,113.033915390682,-56.975728738034,-56.0581866526487, , , , , , , , , , , , , , , , , , , , , , , , , , , , , , , , , , , , , , , , , , , , , , , , , , , , , , , , , , , , ,
-114.005044306995,-113.472317071603,0.532727235391668,93.8293641549711,-70.0271792788172,-83.3981087379709,-157.657592808313,-172.933111916602,-129.979102428016,113.738680689299,-57.2688857711934,-56.4697949181061, , , , , , , , , , , , , , , , , , , , , , , , , , , , , , , , , , , , , , , , , , , , , , , , , , , , , , , , , , , , ,
-114.591485462324,-114.112803809921,0.47868165240309,94.2097116820377,-68.9544986115693,-83.3341930539759,-158.348886961801,-173.401936727428,-130.030036991154,114.352144636122,-57.5350835573636,-56.8170610787592, , , , , , , , , , , , , , , , , , , , , , , , , , , , , , , , , , , , , , , , , , , , , , , , , , , , , , , , , , , , ,
-115.134206158225,-114.376184319787,0.758021838438232,94.5479132080217,-67.8595710096088,-83.2030795308085,-158.953625488489,-173.870084290201,-130.145594504706,114.755195239006,-57.9461139983321,-56.8090812406749, , , , , , , , , , , , , , , , , , , , , , , , , , , , , , , , , , , , , , , , , , , , , , , , , , , , , , , , , , , , ,
-115.573843033031,-114.401250088938,1.17259294409312,94.8456519046591,-66.7400467585149,-82.9859402035536,-159.441769374108,-174.323294170148,-130.32635144457,114.987546560984,-58.3732179885622,-56.6143285724227, , , , , , , , , , , , , , , , , , , , , , , , , , , , , , , , , , , , , , , , , , , , , , , , , , , , , , , , , , , , ,
-115.88509864517,-114.054585157049,1.83051348812123,95.1049303181347,-65.595452333685,-82.6667191817671,-159.786915544564,-174.746425361641,-130.795397933745,114.96984190111,-58.8578060666461,-56.1120358344644, , , , , , , , , , , , , , , , , , , , , , , , , , , , , , , , , , , , , , , , , , , , , , , , , , , , , , , , , , , , ,
-116.17825826649,-113.581697243223,2.59656102326725,95.328056125653,-64.4275593187272,-82.2332774197394,-159.967758745922,-175.124080659629,-131.119281777579,114.879977754856,-59.3874096448789,-55.4925681099781, , , , , , , , , , , , , , , , , , , , , , , , , , , , , , , , , , , , , , , , , , , , , , , , , , , , , , , , , , , , ,
-116.236754226744,-112.712092348352,3.52466187839222,95.5177239029828,-63.2405659020106,-81.6783155881813,-159.969257829782,-175.441320100864,-131.701482135758,114.474423287548,-59.8807080525686,-54.5937152349804, , , , , , , , , , , , , , , , , , , , , , , , , , , , , , , , , , , , , , , , , , , , , , , , , , , , , , , , , , , , ,
-116.169238176289,-111.638219178026,4.53101899826286,95.6771534080859,-62.0410721314479,-80.9999870774602,-159.783420227669,-175.684387690309,-132.141668955749,113.903728677157,-60.3501285872761,-53.5536000898819, , , , , , , , , , , , , , , , , , , , , , , , , , , , , , , , , , , , , , , , , , , , , , , , , , , , , , , , , , , , ,
-116.011561211963,-110.411573582745,5.59998762921791,95.8102334706233,-60.8378506326303,-80.2021382490111,-159.409655506494,-175.841361767078,-132.627036842504,113.211567397354,-60.8057744205907,-52.405792976764, , , , , , , , , , , , , , , , , , , , , , , , , , , , , , , , , , , , , , , , , , , , , , , , , , , , , , , , , , , , ,
-115.778083037751,-109.082648919267,6.69543411848489,95.9216133373471,-59.6414318459529,-79.2941475037269,-158.854682092675,-175.902641469077,-133.035579969432,112.430365978509,-61.2367585781184,-51.1936074003912, , , , , , , , , , , , , , , , , , , , , , , , , , , , , , , , , , , , , , , , , , , , , , , , , , , , , , , , , , , , ,
-115.483702140464,-107.704838677022,7.77886346344261,96.0166856063662,-58.4635403420803,-78.2903784727341,-158.132004501605,-175.861210670194,-133.503595080939,111.594270408743,-61.6312828019537,-49.96298760679, , , , , , , , , , , , , , , , , , , , , , , , , , , , , , , , , , , , , , , , , , , , , , , , , , , , , , , , , , , , ,
-115.142660813177,-106.331515322019,8.81114549115811,96.1014226943022,-57.3164366696497,-77.209309050751,-157.261016907996,-175.712673344942,-133.835050068135,110.737088067598,-61.976903152168,-48.760184915431, , , , , , , , , , , , , , , , , , , , , , , , , , , , , , , , , , , , , , , , , , , , , , , , , , , , , , , , , , , , ,
-114.767644553845,-105.013191431495,9.75445312235039,96.1820622856288,-56.2122320594495,-76.0724363310751,-156.265828378099,-175.455110548686,-134.192738064902,109.89041799267,-62.2610488380981,-47.6293691545726, , , , , , , , , , , , , , , , , , , , , , , , , , , , , , , , , , , , , , , , , , , , , , , , , , , , , , , , , , , , ,
-114.369269387669,-103.79496187513,10.5743075125397,96.2646789128906,-55.1622444068221,-74.9030790683846,-155.173933924809,-175.088847606484,-134.276842124239,109.0821156314,-62.4717884501048,-46.6103271812953, , , , , , , , , , , , , , , , , , , , , , , , , , , , , , , , , , , , , , , , , , , , , , , , , , , , , , , , , , , , ,
-113.955992388347,-102.714410655142,11.2415817332049,96.3547156092696,-54.1764512759551,-73.725201073715,-154.014864234896,-174.616232094197,-134.382856438928,108.335201521744,-62.5987870607761,-45.7364144609689, , , , , , , , , , , , , , , , , , , , , , , , , , , , , , , , , , , , , , , , , , , , , , , , , , , , , , , , , , , , ,
-113.534422867565,-101.800126148943,11.7342967186221,96.4565663200361,-53.2630737670516,-72.5623619745898,-152.818932909356,-174.041510380478,-134.221427666697,107.667274508254,-62.634359793094,-45.0329147151609, , , , , , , , , , , , , , , , , , , , , , , , , , , , , , , , , , , , , , , , , , , , , , , , , , , , , , , , , , , , ,
-113.109959241369,-101.102650303214,12.0073089381554,96.5732865381495,-52.4283020825847,-71.4368694785023,-151.61616698134,-173.370855883266,-133.985569885076,107.106304772292,-62.5586340897627,-44.5476706825298, , , , , , , , , , , , , , , , , , , , , , , , , , , , , , , , , , , , , , , , , , , , , , , , , , , , , , , , , , , , ,
-112.687629628132,-100.722586894603,11.965042733529,96.7064704409043,-51.6761566222308,-70.3691675177549,-150.435462389536,-172.660231111954,-133.53453443117,106.705108261367,-62.3263361808306,-44.3787720805372, , , , , , , , , , , , , , , , , , , , , , , , , , , , , , , , , , , , , , , , , , , , , , , , , , , , , , , , , , , , ,
-112.272976889244,-100.461542267813,11.8114346214318,96.8562859004263,-51.0084705416553,-69.3774588621523,-149.303960911852,-172.411949945459,-132.95596659551,106.367259578529,-62.0422057553384,-44.3250538231908, , , , , , , , , , , , , , , , , , , , , , , , , , , , , , , , , , , , , , , , , , , , , , , , , , , , , , , , , , , , ,
-111.872812144832,-100.379356261565,11.4934558832677,97.0216252879262,-50.4249790451609,-68.4775355439067,-148.24660733412,-171.544585598319,-132.211539784753,106.126084203199,-61.6831340140504,-44.4429501891489, , , , , , , , , , , , , , , , , , , , , , , , , , , , , , , , , , , , , , , , , , , , , , , , , , , , , , , , , , , , ,
-111.495677875296,-100.577446690927,10.9182311843692,97.2003205346031,-49.9235020843021,-67.6827725608373,-147.285821894224,-170.7175926137,-131.433319762393,106.036562283112,-61.206954529833,-44.8296077532794, , , , , , , , , , , , , , , , , , , , , , , , , , , , , , , , , , , , , , , , , , , , , , , , , , , , , , , , , , , , ,
-111.151917701663,-100.746702452059,10.4052152496051,97.3893812435877,-49.5002068675463,-67.0042254476553,-146.441218933093,-170.336689964727,-131.433319762393,105.949310076861,-60.7785664756345,-45.1707436012271, , , , , , , , , , , , , , , , , , , , , , , , , , , , , , , , , , , , , , , , , , , , , , , , , , , , , , , , , , , , ,
-110.898047553502,-101.092816542244,9.80523101125844,97.5852326410746,-49.1499348387538,-66.4507648513497,-145.729320208213,-169.575153008445,-131.433319762393,105.995432047873,-60.3516392823804,-45.6437927654929, , , , , , , , , , , , , , , , , , , , , , , , , , , , , , , , , , , , , , , , , , , , , , , , , , , , , , , , , , , , ,
-110.718219716022,-101.51628883547,9.2019308805528,97.7839449969041,-48.8665763665033,-66.0291893960187,-145.163244427966,-168.620410087043,-131.433319762393,106.117254275746,-59.9600752982878,-46.1571789774587, , , , , , , , , , , , , , , , , , , , , , , , , , , , , , , , , , , , , , , , , , , , , , , , , , , , , , , , , , , , ,
-110.579388319295,-101.996099144698,8.58328917459668,97.9814526324347,-48.6434762379227,-65.7442815290481,-144.752391050415,-167.727409123146,-131.433319762393,106.287743731996,-59.5813387469459,-46.706404985051, , , , , , , , , , , , , , , , , , , , , , , , , , , , , , , , , , , , , , , , , , , , , , , , , , , , , , , , , , , , ,
-110.521708675741,-102.694348020294,7.82736065544672,98.1737589934327,-48.4738535419308,-65.598799572344,-144.502165039209,-167.351409608439,-131.433319762393,106.608028348017,-59.174534665594,-47.4334936824241, , , , , , , , , , , , , , , , , , , , , , , , , , , , , , , , , , , , , , , , , , , , , , , , , , , , , , , , , , , , ,
-110.564585673664,-103.257581035767,7.30700463789717,98.3571186725681,-48.351218033853,-65.5934218649493,-144.413803393852,-166.925378625094,-130.969684551146,106.911083354716,-58.935795155781,-47.9752881989354, , , , , , , , , , , , , , , , , , , , , , , , , , , , , , , , , , , , , , , , , , , , , , , , , , , , , , , , , , , , ,
-110.668190483229,-103.85469837817,6.81349210505963,98.5281837724948,-48.2697587426312,-65.7266702120894,-144.484361057533,-166.273699742125,-130.057087984143,107.261444430699,-58.7408412941446,-48.5206031365553, , , , , , , , , , , , , , , , , , , , , , , , , , , , , , , , , , , , , , , , , , , , , , , , , , , , , , , , , , , , ,
-110.943416069259,-104.406356765971,6.53705930328849,98.6841049068024,-48.2246712694121,-65.9948409230774,-144.706894373524,-165.801841354779,-129.182752120872,107.674886417615,-58.7402376862741,-48.9346487313415, , , , , , , , , , , , , , , , , , , , , , , , , , , , , , , , , , , , , , , , , , , , , , , , , , , , , , , , , , , , ,
-111.252749565107,-104.960904360279,6.29184520482867,98.8225855518898,-48.2123856021458,-66.3919683543802,-145.070849536405,-165.442673655874,-128.608067283959,108.106826962693,-58.7722973849683,-49.3345295777254, , , , , , , , , , , , , , , , , , , , , , , , , , , , , , , , , , , , , , , , , , , , , , , , , , , , , , , , , , , , ,
-111.711171590078,-105.483825961516,6.22734562856258,98.941897535423,-48.2306621608198,-66.9098433731242,-145.562628447758,-165.549438806433,-128.024682228403,108.597498775797,-58.9692586093206,-49.6282401664768, , , , , , , , , , , , , , , , , , , , , , , , , , , , , , , , , , , , , , , , , , , , , , , , , , , , , , , , , , , , ,
-112.190532623395,-106.11065951853,6.07987310486451,99.0408708968329,-48.2785376110626,-67.5381068118911,-146.166273620944,-166.00141331104,-127.639154562326,109.150596070963,-59.1352028641299,-50.0153932068333, , , , , , , , , , , , , , , , , , , , , , , , , , , , , , , , , , , , , , , , , , , , , , , , , , , , , , , , , , , , ,
-112.782220131725,-106.710480214302,6.07173991742346,99.1188710247717,-48.3561179272697,-68.2644311293423,-146.864196951551,-166.093329704834,-127.456310285896,109.746350173014,-59.4269800245746,-50.3193701484396, , , , , , , , , , , , , , , , , , , , , , , , , , , , , , , , , , , , , , , , , , , , , , , , , , , , , , , , , , , , ,
-113.397974169432,-107.087380152657,6.31059401677513,99.1757692378436,-48.4642333600384,-69.0747911209676,-147.637880283657,-166.409957581932,-127.418312146433,110.242677161045,-59.8542840931039,-50.3883930679413, , , , , , , , , , , , , , , , , , , , , , , , , , , , , , , , , , , , , , , , , , , , , , , , , , , , , , , , , , , , ,
-114.0657614963,-107.385288896045,6.68047260025489,99.2119023430079,-48.6039898499785,-69.9538108325248,-148.468495700063,-166.881405521468,-127.653590206995,110.725525196172,-60.3731170482775,-50.3524081478953, , , , , , , , , , , , , , , , , , , , , , , , , , , , , , , , , , , , , , , , , , , , , , , , , , , , , , , , , , , , ,
-114.852913280963,-107.7410859337,7.1118273472624,99.2280084128648,-48.776270149494,-70.8851624633521,-149.337419175788,-167.946024035115,-128.08336643555,111.296999607331,-60.9823703141128,-50.3146292932193, , , , , , , , , , , , , , , , , , , , , , , , , , , , , , , , , , , , , , , , , , , , , , , , , , , , , , , , , , , , ,
-115.604029436649,-108.018396724883,7.58563271176613,99.2251259873293,-48.9812473069362,-71.8519851962658,-150.226630729313,-168.611306064199,-128.357051171811,111.811213080766,-61.594831074208,-50.216382006559, , , , , , , , , , , , , , , , , , , , , , , , , , , , , , , , , , , , , , , , , , , , , , , , , , , , , , , , , , , , ,
-116.610273298514,-108.253504785883,8.35676851263103,99.2044535077924,-49.2179696088315,-72.8372894899903,-151.119002665435,-169.510745651199,-128.827841816491,112.431889042198,-62.4835209055727,-49.9483681366263, , , , , , , , , , , , , , , , , , , , , , , , , , , , , , , , , , , , , , , , , , , , , , , , , , , , , , , , , , , , ,
-117.319835298481,-108.258807220119,9.06102807836303,99.1671812196617,-49.484064103858,-73.8243179919089,-151.998480011505,-170.55128019415,-129.814601591214,112.7893212593,-63.1904316884225,-49.5988895708781, , , , , , , , , , , , , , , , , , , , , , , , , , , , , , , , , , , , , , , , , , , , , , , , , , , , , , , , , , , , ,
-118.038547639974,-108.140813746232,9.89773389374191,99.1143219001327,-49.7755920539187,-74.7968483754269,-152.850164057807,-171.300515807124,-130.372546810354,113.089680693103,-63.9681407668583,-49.1215399262456, , , , , , , , , , , , , , , , , , , , , , , , , , , , , , , , , , , , , , , , , , , , , , , , , , , , , , , , , , , , ,
-118.646652168647,-108.210311662174,10.4363405064733,99.046573797469,-50.0870760132443,-75.7394446473559,-153.660326509767,-172.44870181075,-131.075953913226,113.42848191541,-64.5414963375603,-48.8869855778505, , , , , , , , , , , , , , , , , , , , , , , , , , , , , , , , , , , , , , , , , , , , , , , , , , , , , , , , , , , , ,
-119.360005753921,-108.123093163695,11.2369125902258,98.9642490123698,-50.4117026000431,-76.6376881876154,-154.416402366518,-173.235967782462,-131.998589349342,113.741549458808,-65.2984591720737,-48.4430902867351, , , , , , , , , , , , , , , , , , , , , , , , , , , , , , , , , , , , , , , , , , , , , , , , , , , , , , , , , , , , ,
-119.911474356137,-107.882543832433,12.0289305237043,98.8672955654784,-50.7416858313714,-77.4784389870354,-155.107021673049,-173.924245194629,-132.969075175969,113.897009094285,-65.970202439921,-47.9268066543648, , , , , , , , , , , , , , , , , , , , , , , , , , , , , , , , , , , , , , , , , , , , , , , , , , , , , , , , , , , , ,
