-67.2362842994337,205.431265532738,272.667549832171,-108.094016317356,-127.552776070254,-96.3860106927915,-97.2508804823096,-2.92541351117695,34.0905447055091,-69.097490616652,-169.951917065803,239.049407682454,0,846,817,0,0,817,0,846,817,0,846,817,0,1182,1114,0,0,1198,0,1283,1019,0,1245,1146,0,1314,1276,0,0,1350,0,1358,1281,0,1344,1277,0,1567,1625,0,0,1581,0,1717,1717,0,1787,1526,0,1444,1414,0,0,1414,0,1444,1414,0,1444,1414,
-67.2362842994337,205.431265532738,272.667549832171,-108.094016317356,-127.552776070254,-96.3860106927915,-97.2508804823096,-2.92541351117695,34.0905447055091,-69.097490616652,-169.951917065803,239.049407682454, ,2128,2098, , ,2098, ,2128,2098, ,2128,2098, ,1227,1191, , ,1240, ,1303,1256, ,1297,1191, ,1426,1389, , ,1385, ,1376,1302, ,1388,1390, ,1781,1729, , ,1720, ,1763,1767, ,1788,1735, ,2733,2701, , ,2701, ,2733,2701, ,2733,2701,
-67.2362842994337,205.431265532738,272.667549832171,-108.094016317356,-127.552776070254,-96.3860106927915,-97.2508804823096,-2.92541351117695,34.0905447055091,-69.097490616652,-169.951917065803,239.049407682454, ,3430,3398, , ,3398, ,3430,3398, ,3430,3398, ,1281,1245, , ,1265, ,1315,1258, ,2512,1245, ,1479,1443, , ,1442, ,1440,1413, ,1443,1443, ,1889,1821, , ,1841, ,1857,1844, ,1873,1821, ,4047,4014, , ,4014, ,4047,4014, ,4047,4014,
-67.2362842994337,205.431265532738,272.667549832171,-108.094016317356,-127.552776070254,-96.3860106927915,-97.2508804823096,-2.92541351117695,34.0905447055091,-69.097490616652,-169.951917065803,239.049407682454, ,4744,4711, , ,4711, ,4744,4711, ,4744,4711, ,2320,2130, , ,2511, ,2549,2546, ,2546,2130, ,1565,1506, , ,1559, ,1469,1469, ,1511,1523, ,2991,2815, , ,3072, ,3017,2997, ,3009,2832, ,5361,5328, , ,5328, ,5361,5328, ,5361,5328,
-67.2362842994337,205.431265532738,272.667549832171,-108.094016317356,-127.552776070254,-96.3860106927915,-97.2508804823096,-2.92541351117695,34.0905447055091,-69.097490616652,-169.951917065803,239.049407682454, ,6062,6029, , ,6029, ,6062,6029, ,6062,6029, ,2473,2177, , ,2543, ,2564,2578, ,2579,2179, ,2584,2590, , ,2639, ,1548,1546, ,1532,2590, ,3059,3039, , ,3100, ,3065,3052, ,3073,3054, ,6682,6650, , ,6650, ,6682,6650, ,6682,6650,
-67.2362842994337,205.431265532738,272.667549832171,-108.094016317356,-127.552776070254,-96.3860106927915,-97.2508804823096,-2.92541351117695,34.0905447055091,-69.097490616652,-169.951917065803,239.049407682454, ,7386,7387, , ,7387, ,7386,7387, ,7386,7387, ,2579,2581, , ,2578, ,2643,2613, ,3846,2581, ,2697,2702, , ,2674, ,2663,2639, ,2636,2702, ,3123,3125, , ,3252, ,3146,3122, ,3104,3125, ,8009,7981, , ,7981, ,8009,7981, ,8009,7981,
-67.2362842994337,205.431265532738,272.667549832171,-108.094016317356,-127.552776070254,-96.3860106927915,-97.2508804823096,-2.92541351117695,34.0905447055091,-69.097490616652,-169.951917065803,239.049407682454, ,8858,8687, , ,8687, ,8858,8687, ,8858,8687, ,3462,3462, , ,3792, ,3863,3846, ,3873,3462, ,2750,2756, , ,2730, ,2680,2657, ,2677,2756, ,4293,4229, , ,4334, ,4311,4310, ,4364,4325, , , , , , , , , , , , ,
-67.2362842994337,205.431265532738,272.667549832171,-108.094016317356,-127.552776070254,-96.3860106927915,-97.2508804823096,17.8792558839402,34.0905447055091,-69.097490616652,-169.951917065803,239.049407682454, , , , , , , , , , , , , ,3817,3479, , ,3821, ,3877,3880, ,3913,3479, ,2834,2815, , ,2816, ,2717,2700, ,2732,2830, ,4355,4328, , ,4360, ,4361,4363, ,4387,4422, , , , , , , , , , , , ,
-40.0519849678143,205.431265532738,245.483250500552,-108.094016317356,-127.552776070254,-96.3860106927915,-55.4036494428419,76.6513363289193,89.797455131991,-82.6896402824617,-142.767617734183,225.457258016645, , , , , , , , , , , , , ,4764,3849, , ,3859, ,3913,3913, ,5192,3753, ,3873,3867, , ,2849, ,2774,2756, ,2799,3868, ,4457,4391, , ,4435, ,4446,4434, ,4418,4521, , , , , , , , , , , , ,
-12.803360354868,205.431265532738,218.234625887606,-108.094016317356,-117.47771582855,-26.326360321627,-17.8868782085931,117.945936677553,141.444937961813,-96.3139525889348,-115.518993121237,211.832945710171, , , , , , , , , , , , , ,5131,4871, , ,5171, ,4936,5031, ,5217,4743, ,3994,3993, , ,3899, ,2854,2840, ,2823,3993, ,5607,5420, , ,5700, ,5624,5630, ,5679,5443, , , , , , , , , , , , ,
5.40053743059759,205.431265532738,200.03072810214,-105.033440379537,-96.7184379899586,11.6893745848016,4.48967565812565,143.009972456723,173.738993997494,-105.415901481668,-97.3150953357712,202.730996817439, , , , , , , , , , , , , ,6286,4891, , ,5217, ,5023,5076, ,5259,4765, ,4047,4046, , ,3936, ,3958,3954, ,3936,4047, ,5668,5641, , ,5725, ,5677,5680, ,5694,5650, , , , , , , , , , , , ,
15.6131306396272,205.431265532738,189.81813489311,-93.1560766123626,-86.0603838684142,25.1446836617371,18.3131100055766,153.582102244167,205.61110139196,-110.522198086182,-87.1025021267417,197.624700212924, , , , , , , , , , , , , ,6311,5162, , ,5238, ,5131,5162, ,6254,5130, ,4129,4103, , ,3992, ,3977,3955, ,3992,4115, ,5739,5738, , ,5866, ,5771,5770, ,5720,5738, , , , , , , , , , , , ,
19.5161341204672,205.431265532738,185.91513141227,-89.5139751812165,-83.8384320096432,25.0887183875479,17.0051028357496,153.810106945046,218.970143628633,-112.473699826602,-83.1994986459017,195.673198472504, , , , , , , , , , , , , ,6417,6253, , ,6485, ,6364,6221, ,6306,6093, ,5197,5199, , ,4047, ,4012,4013, ,4046,5199, ,6893,6747, , ,6958, ,6945,6948, ,7017,6892, , , , , , , , , , , , ,
17.5382042983732,205.431265532738,187.893061234364,-91.3647022441618,-88.2898994058137,16.2974440427828,7.50667663067794,142.521315237094,230.861038945291,-111.484734915555,-85.1774284679957,196.662163383551, , , , , , , , , , , , , ,7418,6305, , ,6576, ,6377,6328, ,6417,6290, ,5308,5307, , ,4077, ,4070,4069, ,4113,5308, ,6990,6983, , ,7064, ,6998,7001, ,7018,6983, , , , , , , , , , , , ,
11.5042756222716,205.431265532738,193.926989910466,-98.5518476210385,-98.2000126019494,-2.58531988101967,-8.24771954933634,123.225487952126,210.506772156077,-108.467770577505,-91.2113571440973,199.679127721602, , , , , , , , , , , , , ,7551,6512, , ,7709, ,6417,6384, ,7706,6320, ,5361,5360, , ,4111, ,4252,4153, ,4143,5360, ,7089,7056, , ,7088, ,7089,7088, ,7089,7056, , , , , , , , , , , , ,
2.6241897608564,205.431265532738,202.807075771881,-108.094016317356,-111.719123084154,-24.0355715311431,-28.3458800574797,99.9902648073338,183.680883354902,-104.027727646797,-100.091443005512,204.119170652309, , , , , , , , , , , , , ,7581,7707, , ,7742, ,7697,7707, ,7734,7547, ,5450,5419, , ,5261, ,5155,5168, ,5267,5441, ,8249,8083, , ,8154, ,8280,8288, ,8282,8186, , , , , , , , , , , , ,
-5.86387974408312,203.684429153414,209.548308897497,-108.094016317356,-127.514914762823,-50.792741290027,-50.9802392621041,72.7897457093704,154.165994737241,-98.9102747046652,-107.70609432079,206.616369025455, , , , , , , , , , , , , , ,7748, , , , ,7709,7733, ,7773,7573, ,6478,6520, , ,5301, ,5222,5274, ,5306,6520, ,8321,8286, , ,8269, ,8323,8327, ,8348,8292, , , , , , , , , , , , ,
-15.2122264422563,193.572729691574,208.78495613383,-108.094016317356,-127.552776070254,-76.8006166396716,-74.513634282765,45.9362374857946,122.179749674883,-89.1802516246587,-111.998591288043,201.178842912702, , , , , , , , , , , , , , ,7774, , , , ,7741,7806, , ,7710, ,6631,6629, , ,5358, ,5326,5327, ,5360,6630, ,8413,8382, , ,8382, ,8413,8414, ,8388,8382, , , , , , , , , , , , ,
-25.1793085717809,186.232871736515,211.412180308295,-108.094016317356,-127.552776070254,-96.3860106927915,-97.2508804823096,19.2449679551648,90.5341816779594,-80.5267815823668,-118.295744440038,198.822526022405, , , , , , , , , , , , , , , , , , , , , , , , , ,6681,6681, , ,5384, ,5383,5382, ,5428,6681, , , , , , , , , , , , , , , , , , , , , , , , ,
-34.8354913710362,181.100548719527,215.936040090563,-108.094016317356,-127.552776070254,-96.3860106927915,-97.2508804823096,-2.92541351117695,63.116329393368,-73.1325286742453,-125.3857657308,198.518294405045, , , , , , , , , , , , , , , , , , , , , , , , , ,6771,6746, , ,5578, ,5567,5469, ,5456,6765, , , , , , , , , , , , , , , , , , , , , , , , ,
-43.4613479782711,176.120441764533,219.581789742804,-116.821851259796,-127.552776070254,-96.3860106927915,-97.2508804823096,-2.92541351117695,36.6356174958366,-66.3295468931308,-131.521568860537,197.851115753668, , , , , , , , , , , , , , , , , , , , , , , , , ,7851,7849, , ,6590, ,6523,6502, ,6588,7850, , , , , , , , , , , , , , , , , , , , , , , , ,
-50.5556487071924,172.17703631667,222.732685023862,-126.819432635101,-127.552776070254,-96.3860106927915,-97.2508804823096,-2.92541351117695,34.0905447055091,-60.8106938047385,-136.644166865527,197.454860670265, , , , , , , , , , , , , , , , , , , , , , , , , ,7956,7955, , ,6645, ,6584,6585, ,6627,7956, , , , , , , , , , , , , , , , , , , , , , , , ,
-55.8280064282526,168.741373802195,224.569380230447,-133.607749592844,-127.552776070254,-96.3860106927915,-97.2508804823096,-11.173072994935,34.0905447055091,-56.4566836869711,-140.19869332935,196.655377016321, , , , , , , , , , , , , , , , , , , , , , , , , ,8008,8008, , ,6700, ,6649,6649, ,6681,8008, , , , , , , , , , , , , , , , , , , , , , , , ,
-59.1788075313394,166.506376667344,225.685184198683,-137.777329047469,-127.552776070254,-96.3860106927915,-97.2508804823096,-22.3593390126853,31.645156644812,-53.6637845680022,-142.431995865011,196.095780433013, , , , , , , , , , , , , , , , , , , , , , , , , ,8098,8077, , ,6790, ,6707,6707, ,6750,8093, , , , , , , , , , , , , , , , , , , , , , , , ,
-62.0845927903302,165.248527761055,227.333120551385,-140.3473773538,-128.536357987552,-99.0233371628047,-97.2508804823096,-29.0809899268841,22.7814243630053,-51.5819674853622,-144.708856670857,196.290824156219, , , , , , , , , , , , , , , , , , , , , , , , , , , , , ,6922, ,6787,6793, ,6773, , , , , , , , , , , , , , , , , , , , , , , , , ,
-63.8851494166275,164.715988047657,228.601137464284,-139.655218628404,-128.210416816496,-102.236125787592,-99.5899333143127,-31.6277748074566,17.6192706106369,-50.4154193155147,-146.243143440456,196.65856275597, , , , , , , , , , , , , , , , , , , , , , , , , , , , , ,7919, ,7906,7850, ,7918, , , , , , , , , , , , , , , , , , , , , , , , , ,
-64.8675384762001,165.302206505321,230.169744981521,-138.470792800302,-127.552776070254,-102.556227363753,-100.086913630669,-30.7357838714607,16.9716832600072,-50.2173340145605,-147.518641728861,197.735975743421, , , , , , , , , , , , , , , , , , , , , , , , , , , , , ,7925, ,7927,7980, ,7954, , , , , , , , , , , , , , , , , , , , , , , , , ,
-65.3319026206075,168.007963219859,233.339865840467,-133.958605705785,-127.552776070254,-102.689965305749,-97.2508804823096,-26.7980696224975,19.5042856135603,-51.3380302996258,-149.335884230537,200.673914530163, , , , , , , , , , , , , , , , , , , , , , , , , , , , , ,7953, ,8005,8037, ,8008, , , , , , , , , , , , , , , , , , , , , , , , , ,
-65.5665697814793,171.845936741745,237.412506523224,-131.731487480552,-127.552776070254,-96.3860106927915,-97.2508804823096,-20.0983302504399,24.475890469829,-53.1396834801325,-151.489538152352,204.629221632484, , , , , , , , , , , , , , , , , , , , , , , , , , , , , ,8134, ,8036,8105, ,8077, , , , , , , , , , , , , , , , , , , , , , , , , ,
-65.8287826576291,176.71146920822,242.540251865848,-124.488562463945,-127.552776070254,-96.3860106927915,-97.2508804823096,-12.5618186777709,30.4774497758656,-55.4413432752952,-154.184517261739,209.625860537034, , , , , , , , , , , , , , , , , , , , , , , , , , , , , , , ,8117, , ,8084, , , , , , , , , , , , , , , , , , , , , , , , , ,
-66.3315198370047,182.456905119351,248.788424956355,-116.644752892887,-127.552776070254,-96.3860106927915,-97.2508804823096,-2.92541351117695,34.0905447055091,-58.0626926411731,-157.55997239668,215.622665037853, , , , , , , , , , , , , , , , , , , , , , , , , , , , , , , , , , , , , , , , , , , , , , , , , , , , , , , , , , , , ,
-67.2362842994337,188.89704137413,256.133325673563,-108.594412527632,-127.552776070254,-96.3860106927915,-97.2508804823096,-2.92541351117695,34.0905447055091,-60.8303785373478,-161.684804986498,222.515183523846, , , , , , , , , , , , , , , , , , , , , , , , , , , , , , , , , , , , , , , , , , , , , , , , , , , , , , , , , , , , ,
-67.2362842994337,195.816572774101,263.052857073534,-108.094016317356,-127.552776070254,-96.3860106927915,-97.2508804823096,-2.92541351117695,38.4678070032308,-64.2901442373334,-165.144570686484,229.434714923817, , , , , , , , , , , , , , , , , , , , , , , , , , , , , , , , , , , , , , , , , , , , , , , , , , , , , , , , , , , , ,
-67.2362842994337,202.979130862862,270.215415162296,-108.094016317356,-127.552776070254,-96.3860106927915,-97.2508804823096,0.541124157323274,46.5556283517128,-67.8714232817142,-168.725849730865,236.597273012579, , , , , , , , , , , , , , , , , , , , , , , , , , , , , , , , , , , , , , , , , , , , , , , , , , , , , , , , , , , , ,
-67.2362842994337,205.431265532738,272.667549832171,-108.094016317356,-127.552776070254,-96.3860106927915,-97.2508804823096,9.3631881726257,53.5990749448649,-69.097490616652,-169.951917065803,239.049407682454, , , , , , , , , , , , , , , , , , , , , , , , , , , , , , , , , , , , , , , , , , , , , , , , , , , , , , , , , , , , ,
-67.2362842994337,205.431265532738,272.667549832171,-108.094016317356,-127.552776070254,-96.3860106927915,-93.1534252203685,16.8889141330362,59.5974788420751,-69.097490616652,-169.951917065803,239.049407682454, , , , , , , , , , , , , , , , , , , , , , , , , , , , , , , , , , , , , , , , , , , , , , , , , , , , , , , , , , , , ,
-67.2362842994337,205.431265532738,272.667549832171,-108.094016317356,-127.552776070254,-96.3860106927915,-86.0847839631406,22.8954994058319,64.494511590093,-69.097490616652,-169.951917065803,239.049407682454, , , , , , , , , , , , , , , , , , , , , , , , , , , , , , , , , , , , , , , , , , , , , , , , , , , , , , , , , , , , ,
-67.2362842994337,205.431265532738,272.667549832171,-108.094016317356,-127.552776070254,-90.6396998109854,-81.0852958141306,27.2428960896524,67.9467051473973,-69.097490616652,-169.951917065803,239.049407682454, , , , , , , , , , , , , , , , , , , , , , , , , , , , , , , , , , , , , , , , , , , , , , , , , , , , , , , , , , , , ,
-67.2362842994337,205.431265532738,272.667549832171,-104.877844972009,-127.552776070254,-86.6647432014555,-77.6695952757409,29.8795185337787,69.7929999086457,-69.097490616652,-169.951917065803,239.049407682454, , , , , , , , , , , , , , , , , , , , , , , , , , , , , , , , , , , , , , , , , , , , , , , , , , , , , , , , , , , , ,
-67.2362842994337,205.431265532738,272.667549832171,-102.280568298213,-127.552776070254,-84.4177976623988,-75.82340882384,30.8339141033265,70.4671436331885,-69.097490616652,-169.951917065803,239.049407682454, , , , , , , , , , , , , , , , , , , , , , , , , , , , , , , , , , , , , , , , , , , , , , , , , , , , , , , , , , , , ,
-67.2362842994337,205.431265532738,272.667549832171,-100.58206321355,-127.552776070254,-83.7855813052648,-75.4680678223435,30.2041138303436,70.253686208084,-69.097490616652,-169.951917065803,239.049407682454, , , , , , , , , , , , , , , , , , , , , , , , , , , , , , , , , , , , , , , , , , , , , , , , , , , , , , , , , , , , ,
-67.2362842994337,205.431265532738,272.667549832171,-99.6767793174198,-127.552776070254,-84.5986271201149,-75.954038733817,28.1454112766129,68.4038090073871,-69.097490616652,-169.951917065803,239.049407682454, , , , , , , , , , , , , , , , , , , , , , , , , , , , , , , , , , , , , , , , , , , , , , , , , , , , , , , , , , , , ,
-67.2362842994337,205.431265532738,272.667549832171,-99.0842763518909,-127.552776070254,-86.645735050636,-78.1422155652979,24.8572652624293,66.1402506162774,-69.097490616652,-169.951917065803,239.049407682454, , , , , , , , , , , , , , , , , , , , , , , , , , , , , , , , , , , , , , , , , , , , , , , , , , , , , , , , , , , , ,
-67.2362842994337,205.431265532738,272.667549832171,-98.4683711829135,-127.552776070254,-89.6884022089506,-81.3119997164886,20.5699356196966,63.1635927395544,-69.097490616652,-169.951917065803,239.049407682454, , , , , , , , , , , , , , , , , , , , , , , , , , , , , , , , , , , , , , , , , , , , , , , , , , , , , , , , , , , , ,
-67.2362842994337,205.431265532738,272.667549832171,-97.9589565627881,-127.552776070254,-93.4746551948293,-84.7247161299481,15.5313546882857,59.0782220614035,-69.097490616652,-169.951917065803,239.049407682454, , , , , , , , , , , , , , , , , , , , , , , , , , , , , , , , , , , , , , , , , , , , , , , , , , , , , , , , , , , , ,
-67.2362842994337,205.431265532738,272.667549832171,-97.7919501247423,-127.552776070254,-96.3860106927915,-89.1896115941642,9.99465133901816,55.2847771989343,-69.097490616652,-169.951917065803,239.049407682454, , , , , , , , , , , , , , , , , , , , , , , , , , , , , , , , , , , , , , , , , , , , , , , , , , , , , , , , , , , , ,
-67.2362842994337,205.431265532738,272.667549832171,-98.0998039320244,-127.552776070254,-96.3860106927915,-93.9661853347763,4.20671019577383,50.9009944888928,-69.097490616652,-169.951917065803,239.049407682454, , , , , , , , , , , , , , , , , , , , , , , , , , , , , , , , , , , , , , , , , , , , , , , , , , , , , , , , , , , , ,
-70.0968548905064,205.431265532738,275.528120423244,-99.4239672791799,-127.552776070254,-96.3860106927915,-97.2508804823096,-1.60185741496759,46.6323705631123,-67.6672053211156,-172.812487656875,240.479692977991, , , , , , , , , , , , , , , , , , , , , , , , , , , , , , , , , , , , , , , , , , , , , , , , , , , , , , , , , , , , ,
-73.2169755045257,205.431265532738,278.648241037263,-100.790520313535,-127.552776070254,-96.3860106927915,-97.2508804823096,-2.92541351117695,42.0655320469412,-66.107145014106,-175.932608270895,242.039753285, , , , , , , , , , , , , , , , , , , , , , , , , , , , , , , , , , , , , , , , , , , , , , , , , , , , , , , , , , , , ,
-75.9356646619563,205.431265532738,281.366930194694,-102.152824133291,-127.552776070254,-96.3860106927915,-97.2508804823096,-2.92541351117695,37.7547773381459,-64.7478004353907,-178.651297428325,243.399097863716, , , , , , , , , , , , , , , , , , , , , , , , , , , , , , , , , , , , , , , , , , , , , , , , , , , , , , , , , , , , ,
-78.890037799665,205.431265532738,284.321303332403,-103.482104849541,-127.552776070254,-96.3860106927915,-97.2508804823096,-2.92541351117695,34.0905447055091,-63.2706138665364,-181.605670566034,244.87628443257, , , , , , , , , , , , , , , , , , , , , , , , , , , , , , , , , , , , , , , , , , , , , , , , , , , , , , , , , , , , ,
-80.7974090022927,205.431265532738,286.22867453503,-104.76458398697,-127.552776070254,-96.3860106927915,-97.2508804823096,-7.9109381732672,32.6133161967562,-62.3169282652225,-183.513041768662,245.829970033884, , , , , , , , , , , , , , , , , , , , , , , , , , , , , , , , , , , , , , , , , , , , , , , , , , , , , , , , , , , , ,
-82.3151597122656,205.431265532738,287.746425245003,-105.997756448575,-128.581907681404,-96.3860106927915,-97.2508804823096,-13.0958531618233,29.056774945954,-61.558052910236,-185.030792478634,246.58884538887, , , , , , , , , , , , , , , , , , , , , , , , , , , , , , , , , , , , , , , , , , , , , , , , , , , , , , , , , , , , ,
-85.4257756770458,205.431265532738,290.857041209783,-107.186222947673,-129.368111868273,-98.2298998146483,-99.7678630649013,-15.9264766102566,26.1449099820095,-60.0027449278459,-188.141408443415,248.14415337126, , , , , , , , , , , , , , , , , , , , , , , , , , , , , , , , , , , , , , , , , , , , , , , , , , , , , , , , , , , , ,
-86.2391985069881,205.431265532738,291.670464039726,-108.094016317356,-129.883193809817,-100.417996623128,-102.009546107637,-19.2245773117662,23.2706738124668,-59.5960335128748,-188.954831273357,248.550864786231, , , , , , , , , , , , , , , , , , , , , , , , , , , , , , , , , , , , , , , , , , , , , , , , , , , , , , , , , , , , ,
-86.7513731162933,203.657720774976,290.409093891269,-108.094016317356,-130.844724314058,-101.695387484109,-103.617546341378,-20.9706017152535,21.1940006134321,-58.4531738293415,-188.580233503781,247.033407333123, , , , , , , , , , , , , , , , , , , , , , , , , , , , , , , , , , , , , , , , , , , , , , , , , , , , , , , , , , , , ,
-87.5713968905695,202.49304280786,290.064439698429,-108.094016317356,-131.072757038368,-102.597834704435,-105.143050123314,-22.3492159579242,19.7559662458732,-57.4608229586452,-188.817918294499,246.278741253144, , , , , , , , , , , , , , , , , , , , , , , , , , , , , , , , , , , , , , , , , , , , , , , , , , , , , , , , , , , , ,
-87.6064249834919,201.918725015537,289.525149999028,-108.094016317356,-131.074908291634,-103.157526160704,-106.129096165168,-23.0737359158387,19.0012064060495,-57.1561500160224,-188.56578749126,245.721937507282, , , , , , , , , , , , , , , , , , , , , , , , , , , , , , , , , , , , , , , , , , , , , , , , , , , , , , , , , , , , ,
-87.4703531965703,201.894544436912,289.364897633482,-108.094016317356,-131.427638166608,-103.23655398291,-106.670974818948,-23.1492312702488,18.6376987495535,-57.2120956201709,-188.417625415026,245.629721035197, , , , , , , , , , , , , , , , , , , , , , , , , , , , , , , , , , , , , , , , , , , , , , , , , , , , , , , , , , , , ,
-87.4443426796345,202.363687000388,289.808029680022,-108.094016317356,-130.375151497312,-103.06658791865,-107.09751489799,-23.8428991283273,18.6044879919261,-57.4596721603767,-188.626186179828,246.085858340205, , , , , , , , , , , , , , , , , , , , , , , , , , , , , , , , , , , , , , , , , , , , , , , , , , , , , , , , , , , , ,
-88.1934237151354,203.257914110421,291.451337825556,-108.094016317356,-130.442527436903,-101.884450995539,-107.55313096447,-23.3328792008506,18.8541011825812,-57.5322451976425,-189.822380770346,247.354625967988, , , , , , , , , , , , , , , , , , , , , , , , , , , , , , , , , , , , , , , , , , , , , , , , , , , , , , , , , , , , ,
-87.8022843652059,204.502503664805,292.30478803001,-109.087124069843,-129.09808421704,-101.929914908667,-106.645218879088,-22.3667755789318,19.3394426200969,-58.3501096497994,-190.053536197608,248.403645847407, , , , , , , , , , , , , , , , , , , , , , , , , , , , , , , , , , , , , , , , , , , , , , , , , , , , , , , , , , , , ,
-87.3959219341823,205.431265532738,292.82718746692,-109.696224154551,-128.279689309046,-102.070750998523,-105.507952991122,-21.1901856337925,20.0153177549125,-59.0176717992777,-190.111554700551,249.129226499829, , , , , , , , , , , , , , , , , , , , , , , , , , , , , , , , , , , , , , , , , , , , , , , , , , , , , , , , , , , , ,
-87.7848194337744,205.431265532738,293.216084966512,-110.258762040847,-127.552776070254,-100.224676112563,-105.088652399949,-20.6952608703703,20.8395504348425,-58.8232230494816,-190.500452200143,249.323675249625, , , , , , , , , , , , , , , , , , , , , , , , , , , , , , , , , , , , , , , , , , , , , , , , , , , , , , , , , , , , ,
-87.3998409512904,205.431265532738,292.831106484028,-110.966809611938,-127.552776070254,-100.178464135596,-103.29226434204,-18.982604744907,21.7737262791263,-59.0157122907236,-190.115473717659,249.131186008383, , , , , , , , , , , , , , , , , , , , , , , , , , , , , , , , , , , , , , , , , , , , , , , , , , , , , , , , , , , , ,
-87.0277438857127,205.431265532738,292.45900941845,-111.157230415414,-127.552776070254,-98.3503070245359,-103.240168198281,-17.5243937567578,22.7836103657367,-59.2017608235125,-189.743376652082,248.945137475594, , , , , , , , , , , , , , , , , , , , , , , , , , , , , , , , , , , , , , , , , , , , , , , , , , , , , , , , , , , , ,
-88.8966294864829,205.431265532738,294.32789501922,-111.763095118569,-127.552776070254,-96.8512128847341,-101.528081658453,-16.3408647241197,23.8392986502547,-58.2673180231274,-191.612262252852,249.879580275979, , , , , , , , , , , , , , , , , , , , , , , , , , , , , , , , , , , , , , , , , , , , , , , , , , , , , , , , , , , , ,
-88.4921886048638,205.431265532738,293.923454137601,-111.479003763459,-127.552776070254,-96.3860106927915,-99.8906079763913,-15.1707755198086,24.9151842690865,-58.469538463937,-191.207821371233,249.677359835169, , , , , , , , , , , , , , , , , , , , , , , , , , , , , , , , , , , , , , , , , , , , , , , , , , , , , , , , , , , , ,
-88.0209365620828,205.431265532738,293.45220209482,-111.126944967239,-127.552776070254,-96.3860106927915,-99.1058476761147,-13.7246920668884,25.9898459405029,-58.7051644853274,-190.736569328452,249.441733813779, , , , , , , , , , , , , , , , , , , , , , , , , , , , , , , , , , , , , , , , , , , , , , , , , , , , , , , , , , , , ,
-87.4845704069541,205.431265532738,292.915835939692,-110.545178542195,-127.552776070254,-96.3860106927915,-98.8896261586483,-12.4796788689255,27.0459673616708,-58.9733475628918,-190.200203173323,249.173550736214, , , , , , , , , , , , , , , , , , , , , , , , , , , , , , , , , , , , , , , , , , , , , , , , , , , , , , , , , , , , ,
-87.1474278800892,205.431265532738,292.578693412827,-110.318355591472,-127.552776070254,-96.3860106927915,-97.2508804823096,-11.248191964591,28.070352608441,-59.1419188263242,-189.863060646458,249.004979472782, , , , , , , , , , , , , , , , , , , , , , , , , , , , , , , , , , , , , , , , , , , , , , , , , , , , , , , , , , , , ,
-86.2099366152564,205.431265532738,291.641202147994,-109.73883800874,-127.552776070254,-96.3860106927915,-97.2508804823096,-9.33553536573192,29.0540220783444,-59.6106644587407,-188.925569381625,248.536233840366, , , , , , , , , , , , , , , , , , , , , , , , , , , , , , , , , , , , , , , , , , , , , , , , , , , , , , , , , , , , ,
-85.2764139651459,205.431265532738,290.707679497883,-109.15661879057,-127.552776070254,-96.3860106927915,-97.2508804823096,-7.9145553528361,29.9922867215871,-60.0774257837959,-187.992046731515,248.06947251531, , , , , , , , , , , , , , , , , , , , , , , , , , , , , , , , , , , , , , , , , , , , , , , , , , , , , , , , , , , , ,
-84.2927558500563,205.431265532738,289.724021382794,-108.727437667374,-127.552776070254,-96.3860106927915,-97.2508804823096,-6.60528828474191,30.8846359722522,-60.5692548413407,-187.008388616425,247.577643457766, , , , , , , , , , , , , , , , , , , , , , , , , , , , , , , , , , , , , , , , , , , , , , , , , , , , , , , , , , , , ,
-82.6941647532866,206.317542558875,289.011707312161,-108.600314493215,-127.552776070254,-96.3860106927915,-97.2508804823096,-4.95768588568291,31.7342616407975,-61.8116889027942,-185.852936032724,247.664624935518, , , , , , , , , , , , , , , , , , , , , , , , , , , , , , , , , , , , , , , , , , , , , , , , , , , , , , , , , , , , ,
-82.4960781714233,210.008166152917,292.50424432434,-108.094016317356,-127.552776070254,-96.3860106927915,-97.2508804823096,-3.88282252435176,32.5470921043004,-63.7560439907466,-187.500161247882,251.256205238628, , , , , , , , , , , , , , , , , , , , , , , , , , , , , , , , , , , , , , , , , , , , , , , , , , , , , , , , , , , , ,
-80.9065633032658,213.375389095898,294.281952399163,-108.094016317356,-127.552776070254,-96.3860106927915,-96.5135463202459,-2.60722601938216,33.3303211410437,-66.2344128963158,-187.594257851215,253.82867074753, , , , , , , , , , , , , , , , , , , , , , , , , , , , , , , , , , , , , , , , , , , , , , , , , , , , , , , , , , , , ,
-80.2148303809582,217.480217185248,297.695047566206,-108.094016317356,-127.552776070254,-96.3860106927915,-95.8862865827223,-1.76507901316047,34.0905447055091,-68.632693402145,-188.954938973582,257.587632375727, , , , , , , , , , , , , , , , , , , , , , , , , , , , , , , , , , , , , , , , , , , , , , , , , , , , , , , , , , , , ,
-77.7442271362029,220.822321664721,298.566548800924,-108.094016317356,-127.552776070254,-96.3860106927915,-95.3325974691306,-0.396430839922978,34.8317169633249,-71.5390472642591,-188.155387968564,259.694435232822, , , , , , , , , , , , , , , , , , , , , , , , , , , , , , , , , , , , , , , , , , , , , , , , , , , , , , , , , , , , ,
-76.1345944781311,225.311139591959,301.44573407009,-108.094016317356,-127.552776070254,-96.3860106927915,-94.5013493523415,0.221701164933556,35.5531777401686,-74.5882725569139,-188.79016427411,263.378436831024, , , , , , , , , , , , , , , , , , , , , , , , , , , , , , , , , , , , , , , , , , , , , , , , , , , , , , , , , , , , ,
-74.3377654807717,229.296348832486,303.634114313257,-108.094016317356,-127.552776070254,-96.3860106927915,-93.9839949403292,1.37415978067082,36.247995600914,-77.4792916758569,-188.985939897014,266.465231572871, , , , , , , , , , , , , , , , , , , , , , , , , , , , , , , , , , , , , , , , , , , , , , , , , , , , , , , , , , , , ,
-73.0699314320591,233.881481418526,306.951412850585,-108.094016317356,-127.046588781027,-96.3860106927915,-93.4393493007017,1.76197232791917,36.901835313982,-80.4057749932335,-190.010672141322,270.416447134555, , , , , , , , , , , , , , , , , , , , , , , , , , , , , , , , , , , , , , , , , , , , , , , , , , , , , , , , , , , , ,
-71.0449820908728,238.63821082323,309.683192914103,-108.094016317356,-126.550560048911,-96.3860106927915,-92.2849833415371,2.02165936345744,37.4925059168857,-83.7966143661787,-190.364087502488,274.160701868666, , , , , , , , , , , , , , , , , , , , , , , , , , , , , , , , , , , , , , , , , , , , , , , , , , , , , , , , , , , , ,
-69.9002882682476,244.33974055695,314.240028825197,-108.342562485066,-126.062487712716,-96.3860106927915,-91.6493534209967,2.50102735151307,37.9902782272386,-87.219726144351,-192.070158546722,279.289884691073, , , , , , , , , , , , , , , , , , , , , , , , , , , , , , , , , , , , , , , , , , , , , , , , , , , , , , , , , , , , ,
-68.3264487524216,248.803587179458,317.130035931879,-108.58739932156,-125.588352845479,-96.3860106927915,-90.9810631878865,2.45144550897242,38.3589883415205,-90.2385692135179,-192.72824234215,282.966811555668, , , , , , , , , , , , , , , , , , , , , , , , , , , , , , , , , , , , , , , , , , , , , , , , , , , , , , , , , , , , ,
-67.2362842994337,253.019909722837,320.25619402227,-108.693490458453,-125.144447642186,-96.3860106927915,-90.3125346177901,2.27490428397839,38.5729285270843,-92.8918127117015,-193.746239160852,286.638051872553, , , , , , , , , , , , , , , , , , , , , , , , , , , , , , , , , , , , , , , , , , , , , , , , , , , , , , , , , , , , ,
-67.2362842994337,257.211699520892,324.447983820326,-108.689251502649,-124.759485606859,-96.3860106927915,-88.8463523561529,1.81312944862969,38.5591989111665,-94.9877076107292,-195.84213405988,290.829841670609, , , , , , , , , , , , , , , , , , , , , , , , , , , , , , , , , , , , , , , , , , , , , , , , , , , , , , , , , , , , ,
-67.2581787767647,260.739252553284,327.997431330049,-108.513694787338,-124.476598163211,-95.996158209948,-88.3505952669711,2.29182423765467,38.5711774371609,-96.7405368882597,-197.627805053407,294.368341941666, , , , , , , , , , , , , , , , , , , , , , , , , , , , , , , , , , , , , , , , , , , , , , , , , , , , , , , , , , , , ,
-71.8668656418125,265.376697694013,337.243563335825,-108.285818362858,-124.354998823431,-95.5863412942784,-88.06477757832,1.29345923944691,38.0116244494036,-96.7549160261,-204.555214488819,301.310130514919, , , , , , , , , , , , , , , , , , , , , , , , , , , , , , , , , , , , , , , , , , , , , , , , , , , , , , , , , , , , ,
-78.1388675185126,269.273989910109,347.412857428621,-108.094016317356,-124.471005200794,-95.4416891964591,-87.8987238654372,0.351154818864124,37.1323197310642,-95.567561195798,-212.775862473567,308.343423669365, , , , , , , , , , , , , , , , , , , , , , , , , , , , , , , , , , , , , , , , , , , , , , , , , , , , , , , , , , , , ,
-85.118024014718,272.381163982864,357.499187997582,-108.094016317356,-124.918094375981,-95.6886975668432,-88.3591727464072,-1.29858976672842,36.379360249648,-93.6315699840731,-221.30860600615,314.940175990223, , , , , , , , , , , , , , , , , , , , , , , , , , , , , , , , , , , , , , , , , , , , , , , , , , , , , , , , , , , , ,
-92.7020533121129,275.610328254849,368.312381566962,-108.094016317356,-125.805724389825,-96.3860106927915,-89.3778048846584,-3.30275581575717,34.8357255335948,-91.4541374713681,-230.507217439537,321.961354910905, , , , , , , , , , , , , , , , , , , , , , , , , , , , , , , , , , , , , , , , , , , , , , , , , , , , , , , , , , , , ,
-96.9658647597974,278.467520432554,375.433385192351,-108.094016317356,-127.25675016737,-96.3860106927915,-91.0842871667648,-5.66669198611141,32.978765905302,-90.7508278363783,-236.199624976074,326.950452812452, , , , , , , , , , , , , , , , , , , , , , , , , , , , , , , , , , , , , , , , , , , , , , , , , , , , , , , , , , , , ,
-105.130232990863,281.219336858104,386.349569848967,-108.094016317356,-127.591552987018,-98.168861135883,-92.9693663314933,-8.38118546937319,31.6436556326728,-88.0445519336206,-245.739901419915,333.784453353535, , , , , , , , , , , , , , , , , , , , , , , , , , , , , , , , , , , , , , , , , , , , , , , , , , , , , , , , , , , , ,
-114.151296769705,283.993146180668,398.144442950372,-108.094016317356,-130.701947613413,-101.923417993887,-96.420505366586,-11.4190754598279,29.339721450837,-84.9209247054813,-256.147869860038,341.068794565519, , , , , , , , , , , , , , , , , , , , , , , , , , , , , , , , , , , , , , , , , , , , , , , , , , , , , , , , , , , , ,
-123.291564404763,287.128767671496,410.420332076259,-108.094016317356,-134.967081150573,-106.355378055312,-100.682444272443,-14.7320669543142,27.2837332601209,-81.9186016333662,-266.855948240511,348.774549873877, , , , , , , , , , , , , , , , , , , , , , , , , , , , , , , , , , , , , , , , , , , , , , , , , , , , , , , , , , , , ,
-132.393888398328,292.191101675228,424.584990073556,-108.88573580233,-140.273720684707,-111.960638456689,-105.892071423747,-18.2479782241263,24.9532058725115,-79.8986066384502,-278.489439235942,358.388045874392, , , , , , , , , , , , , , , , , , , , , , , , , , , , , , , , , , , , , , , , , , , , , , , , , , , , , , , , , , , , ,
-141.315849501737,296.550223110092,437.866072611829,-110.260068230918,-146.935844550879,-119.27855136356,-112.607133731588,-21.8686973274762,23.3242023248465,-77.6171868041774,-289.590961056783,367.20814786096, , , , , , , , , , , , , , , , , , , , , , , , , , , , , , , , , , , , , , , , , , , , , , , , , , , , , , , , , , , , ,
-149.129359989385,303.716499704482,452.845859693867,-112.197911347812,-154.521081560143,-127.929873870656,-120.457123909453,-25.4691282004861,21.6174372949297,-77.2935698575483,-300.987609841626,378.281179699174, , , , , , , , , , , , , , , , , , , , , , , , , , , , , , , , , , , , , , , , , , , , , , , , , , , , , , , , , , , , ,
-156.774599557919,311.244170791855,468.018770349774,-114.948548697825,-163.300796340253,-137.256962396039,-129.39585075264,-28.8973373329264,21.3779219957162,-77.2347856169675,-312.396684953847,389.631470570814, , , , , , , , , , , , , , , , , , , , , , , , , , , , , , , , , , , , , , , , , , , , , , , , , , , , , , , , , , , , ,
-165.124061999274,321.200071092213,486.324133091486,-118.099229072159,-173.88486319665,-147.6931827093,-139.330296843393,-31.9759816573968,21.5414534531731,-78.0380045464692,-325.72409754538,403.762102091849, , , , , , , , , , , , , , , , , , , , , , , , , , , , , , , , , , , , , , , , , , , , , , , , , , , , , , , , , , , , ,
-172.151442796428,333.827522769367,505.978965565795,-122.729912740699,-185.219654030467,-159.411649353922,-149.467710676294,-34.5049725719255,22.3778093672511,-80.8380399864696,-339.065204181112,419.903244167581, , , , , , , , , , , , , , , , , , , , , , , , , , , , , , , , , , , , , , , , , , , , , , , , , , , , , , , , , , , , ,
-179.030412924036,348.946195797916,527.976608721952,-128.153490401356,-197.827515347248,-171.816888250609,-160.914449317855,-36.2652591425597,24.7511570436257,-84.95789143694,-353.503510822994,438.461402259934, , , , , , , , , , , , , , , , , , , , , , , , , , , , , , , , , , , , , , , , , , , , , , , , , , , , , , , , , , , , ,
-185.760764293571,366.352596974337,552.113361267908,-134.024001881439,-211.307025541892,-184.529090162992,-172.811472429937,-36.646239208682,28.6071929459433,-90.2959163403828,-368.93706278074,459.232979121122, , , , , , , , , , , , , , , , , , , , , , , , , , , , , , , , , , , , , , , , , , , , , , , , , , , , , , , , , , , , ,
-192.265661096651,386.416799646728,578.682460743378,-139.841365581038,-225.714574122181,-197.491521793262,-184.657851545808,-36.1606714589537,34.0905447055091,-97.0755692750383,-385.474060920015,482.549630195053, , , , , , , , , , , , , , , , , , , , , , , , , , , , , , , , , , , , , , , , , , , , , , , , , , , , , , , , , , , , ,
-198.46834701893,409.378232597324,607.846579616254,-145.169350780522,-240.431679181452,-212.140679337661,-196.595383724788,-33.6243380245588,41.5678577723059,-105.454942789197,-403.157463317592,508.612406106789, , , , , , , , , , , , , , , , , , , , , , , , , , , , , , , , , , , , , , , , , , , , , , , , , , , , , , , , , , , , ,
-204.288778889253,434.4297308522,638.718509741454,-150.055750631106,-254.627807369383,-227.148557729826,-208.0776641589,-29.9213765467321,51.9963139288641,-115.070475981473,-421.503644315353,536.574120296827, , , , , , , , , , , , , , , , , , , , , , , , , , , , , , , , , , , , , , , , , , , , , , , , , , , , , , , , , , , , ,
-209.639486520444,461.833453301621,671.472939822065,-155.812619581088,-268.488012930568,-239.371135289875,-218.763204601661,-22.8379797146404,64.6758283403303,-126.096983390589,-440.556213171255,566.653196561843, , , , , , , , , , , , , , , , , , , , , , , , , , , , , , , , , , , , , , , , , , , , , , , , , , , , , , , , , , , , ,
-214.420924544893,490.271023239874,704.691947784767,-159.717012710077,-281.334099299652,-252.36520663778,-228.303468289922,-15.00185278632,78.9213815123851,-137.925049347491,-459.55643616483,597.48148551232, , , , , , , , , , , , , , , , , , , , , , , , , , , , , , , , , , , , , , , , , , , , , , , , , , , , , , , , , , , , ,
-218.516682387857,521.192045260782,739.708727648638,-164.050349380613,-292.860269605699,-260.641349546966,-236.352300259348,-4.41858228903636,95.1950247735665,-151.337681436463,-479.112705018248,630.45038645471, , , , , , , , , , , , , , , , , , , , , , , , , , , , , , , , , , , , , , , , , , , , , , , , , , , , , , , , , , , , ,
-221.70994883084,554.389569427368,776.099518258207,-166.469945399207,-301.837682199481,-266.848162725616,-242.575167027841,8.31807936916828,113.756026632664,-166.339810298264,-498.904733544524,665.244543842787, , , , , , , , , , , , , , , , , , , , , , , , , , , , , , , , , , , , , , , , , , , , , , , , , , , , , , , , , , , , ,
-222.581479538332,583.830286718443,806.411766256775,-167.012220693237,-308.143176613928,-270.64082637855,-246.217896318517,24.2584815945142,134.553145686387,-180.624403590055,-514.496622897554,695.121026487609, , , , , , , , , , , , , , , , , , , , , , , , , , , , , , , , , , , , , , , , , , , , , , , , , , , , , , , , , , , , ,
-221.710366772392,614.342023025596,836.052389797988,-165.982146270243,-311.218644703915,-271.715567724142,-247.873899418207,42.4509217504821,157.506276595079,-196.315828126602,-528.88137828519,725.197206411792, , , , , , , , , , , , , , , , , , , , , , , , , , , , , , , , , , , , , , , , , , , , , , , , , , , , , , , , , , , , ,
-218.86840346104,636.807513075976,855.675916537015,-163.190994864836,-310.533735642958,-269.818984706228,-246.774519866437,63.5063524115407,182.516162236017,-208.969554807468,-537.272159999027,746.241714806495, , , , , , , , , , , , , , , , , , , , , , , , , , , , , , , , , , , , , , , , , , , , , , , , , , , , , , , , , , , , ,
-213.84014154425,659.419591532432,873.259733076682,-158.490960798513,-305.605200322721,-264.755619373164,-242.860149229493,88.0912651215905,209.475610565065,-222.789724994091,-543.549937310466,766.339662304557, , , , , , , , , , , , , , , , , , , , , , , , , , , , , , , , , , , , , , , , , , , , , , , , , , , , , , , , , , , , ,
-208.770259267669,670.856225322913,879.626484590582,-151.784953446451,-296.016130728341,-256.393673228558,-235.883856545777,115.005121752764,238.281421062145,-231.042983027622,-544.198371929126,775.241354956747, , , , , , , , , , , , , , , , , , , , , , , , , , , , , , , , , , , , , , , , , , , , , , , , , , , , , , , , , , , , ,
-200.443029854512,679.988582472066,880.431612326577,-143.877872331859,-281.434451982691,-244.66890257836,-225.720275853113,145.215538782497,268.846062677159,-239.772776308777,-540.437321090545,780.210097399321, , , , , , , , , , , , , , , , , , , , , , , , , , , , , , , , , , , , , , , , , , , , , , , , , , , , , , , , , , , , ,
-187.970313310129,677.280738143307,865.251051453435,-134.441381902726,-261.85636273233,-229.586807128367,-212.290319997171,178.010811976433,301.71946099296,-244.655212416589,-526.610682381782,771.265894798371, , , , , , , , , , , , , , , , , , , , , , , , , , , , , , , , , , , , , , , , , , , , , , , , , , , , , , , , , , , , ,
-172.99641993947,668.782687855297,841.779107794766,-121.93027476617,-236.874517845705,-211.223239462164,-195.5620621634,214.927905487578,335.78943348819,-247.893133957913,-507.387763867118,755.280897825031, , , , , , , , , , , , , , , , , , , , , , , , , , , , , , , , , , , , , , , , , , , , , , , , , , , , , , , , , , , , ,
-158.228630642339,648.766176459377,806.994807101717,-107.825499586919,-206.696774831875,-189.742588358606,-175.551531687743,253.471897695233,372.355955665752,-245.268772908519,-482.611718872028,727.880491780547, , , , , , , , , , , , , , , , , , , , , , , , , , , , , , , , , , , , , , , , , , , , , , , , , , , , , , , , , , , , ,
-136.144488829823,620.850214899485,756.994703729307,-92.2666919953864,-171.075158661667,-167.366791625144,-152.323831303143,294.837436316977,409.788055884328,-242.352863034831,-446.569596279565,688.922459314396, , , , , , , , , , , , , , , , , , , , , , , , , , , , , , , , , , , , , , , , , , , , , , , , , , , , , , , , , , , , ,
-110.415979831211,582.307638880047,692.723618711258,-75.863532435125,-130.693312616854,-140.47872776683,-125.994932073949,338.81905684543,449.495067412708,-235.945829524418,-401.569799271234,637.515628795652, , , , , , , , , , , , , , , , , , , , , , , , , , , , , , , , , , , , , , , , , , , , , , , , , , , , , , , , , , , , ,
-80.9541459131248,535.34112248655,616.295268399674,-59.1981091892443,-127.552776070254,-111.733899041067,-96.7343288762765,387.014460703142,491.003231726709,-227.193488286712,-348.6247071564,575.818195443112, , , , , , , , , , , , , , , , , , , , , , , , , , , , , , , , , , , , , , , , , , , , , , , , , , , , , , , , , , , , ,
-50.0449982656765,479.350554781721,529.395553047397,-41.5664814097707,-127.552776070254,-96.3860106927915,-64.7683860314112,435.813505083482,534.27638932895,-214.652778258022,-289.720275656537,504.373053914559, , , , , , , , , , , , , , , , , , , , , , , , , , , , , , , , , , , , , , , , , , , , , , , , , , , , , , , , , , , , ,
-20.1182966768013,414.956130300198,435.074426976999,-24.948092736557,-127.552776070254,-64.7158589326103,-30.3836746831841,487.455523742671,579.278826083999,-197.418916811698,-227.5963618269,425.015278638598, , , , , , , , , , , , , , , , , , , , , , , , , , , , , , , , , , , , , , , , , , , , , , , , , , , , , , , , , , , , ,
16.1260776323206,344.234886877239,328.108809244918,-8.6719112962122,-127.552776070254,-29.8806869065553,6.07097867121503,539.896623274003,627.029119304244,-180.18048225478,-155.991365806299,336.171848061078, , , , , , , , , , , , , , , , , , , , , , , , , , , , , , , , , , , , , , , , , , , , , , , , , , , , , , , , , , , , ,
56.1749650452752,268.433957701522,212.258992656247,5.84096317380398,-127.552776070254,10.3727211634665,44.1854327753145,593.925748675309,676.675358402952,-162.304461373399,-78.0420138054857,240.346475178884, , , , , , , , , , , , , , , , , , , , , , , , , , , , , , , , , , , , , , , , , , , , , , , , , , , , , , , , , , , , ,
99.7072112933362,205.431265532738,105.724054239401,11.5302158807823,-93.2967942868911,54.3984904356377,83.4939278133691,648.471880480049,727.541657244569,-152.569238413037,-3.0084214730326,155.577659886069, , , , , , , , , , , , , , , , , , , , , , , , , , , , , , , , , , , , , , , , , , , , , , , , , , , , , , , , , , , , ,
144.247831690165,145.521886477982,1.27405478781668,14.9001109370178,-15.4737317529685,87.9121885992146,123.486976614818,703.625075818564,779.701904007991,-144.884859084073,71.486888451174,73.397970632899, , , , , , , , , , , , , , , , , , , , , , , , , , , , , , , , , , , , , , , , , , , , , , , , , , , , , , , , , , , , ,
192.41477570025,40.3790301767226,-152.035745523528,18.0805499250261,62.498221786494,120.927865995835,163.630286290649,756.791207594025,833.121399933241,-116.396902938486,172.225260611889,-55.828357673403, , , , , , , , , , , , , , , , , , , , , , , , , , , , , , , , , , , , , , , , , , , , , , , , , , , , , , , , , , , , ,
245.409240879246,-46.7810459012567,-292.190286780503,12.5711624771444,146.95952558458,151.720165969546,203.390819046053,808.401985168471,885.90777851295,-99.3140974889948,268.799763829875,-169.48566634088, , , , , , , , , , , , , , , , , , , , , , , , , , , , , , , , , , , , , , , , , , , , , , , , , , , , , , , , , , , , ,
300.763711220422,-141.653461929188,-442.41717314961,6.33811522427381,204.761945270522,180.727687614626,242.269334995648,856.204309810352,938.744097174239,-79.5551246456167,371.590442185016,-292.035317539399, , , , , , , , , , , , , , , , , , , , , , , , , , , , , , , , , , , , , , , , , , , , , , , , , , , , , , , , , , , , ,
357.498766719515,-222.641900119279,-580.140666838794,-9.36553838622659,286.7381207428,207.335665931429,279.837970315995,899.791342337431,989.006037815084,-67.4284333001176,468.819716779154,-401.391283479037, , , , , , , , , , , , , , , , , , , , , , , , , , , , , , , , , , , , , , , , , , , , , , , , , , , , , , , , , , , , ,
413.568017739738,-302.091751304872,-715.65976904461,-22.0991348383708,338.424883935403,233.674563745333,315.780600710064,939.003380375954,1036.41054019102,-55.7381332174328,564.613893392174,-508.875760174741, , , , , , , , , , , , , , , , , , , , , , , , , , , , , , , , , , , , , , , , , , , , , , , , , , , , , , , , , , , , ,
471.8860302659,-380.206494078806,-852.092524344707,-37.6847657022653,398.8191025308,255.738976958311,350.517196378612,971.007258539651,1079.63029923897,-45.8397680935469,661.989277305304,-616.149509211757, , , , , , , , , , , , , , , , , , , , , , , , , , , , , , , , , , , , , , , , , , , , , , , , , , , , , , , , , , , , ,
532.349231387333,-458.572483041578,-990.921714428911,-53.3063113358217,461.312166160723,275.893764276291,383.690495107353,995.401717736766,1117.46908290759,-36.8883741728778,761.635472908122,-724.747098735245, , , , , , , , , , , , , , , , , , , , , , , , , , , , , , , , , , , , , , , , , , , , , , , , , , , , , , , , , , , , ,
593.075613683592,-537.909608729744,-1130.98522241334,-68.2791897805588,494.351256331077,294.622904099339,414.751874526749,1012.87146667055,1148.6419931091,-27.5830024769237,862.030418048464,-834.44741557154, , , , , , , , , , , , , , , , , , , , , , , , , , , , , , , , , , , , , , , , , , , , , , , , , , , , , , , , , , , , ,
652.430386351238,-618.302533765756,-1270.73292011699,-84.0729862307379,546.038254064484,312.69089826243,444.647041303713,1021.25875873027,1172.05778272298,-17.063926292741,961.581653234116,-944.517726941375, , , , , , , , , , , , , , , , , , , , , , , , , , , , , , , , , , , , , , , , , , , , , , , , , , , , , , , , , , , , ,
709.83389282381,-703.175541405027,-1413.00943422884,-93.586730389775,595.018289989809,331.052240139588,474.109506851712,1021.34956572121,1186.56580039329,-3.32917570939135,1061.42166352632,-1058.09248781693, , , , , , , , , , , , , , , , , , , , , , , , , , , , , , , , , , , , , , , , , , , , , , , , , , , , , , , , , , , , ,
769.258696856298,-791.471739229667,-1560.73043608597,-112.01556932039,626.521509350211,350.840955788411,504.648820537143,1013.3625218013,1192.20920269828,11.1065211866845,1164.99456647113,-1176.10108765782, , , , , , , , , , , , , , , , , , , , , , , , , , , , , , , , , , , , , , , , , , , , , , , , , , , , , , , , , , , , ,
828.38730103366,-888.807106813286,-1717.19440784695,-126.21416282401,669.34292847158,373.327506072167,537.548284305345,997.839191358927,1186.73627839789,30.2099028898131,1272.7908544403,-1303.00075733012, , , , , , , , , , , , , , , , , , , , , , , , , , , , , , , , , , , , , , , , , , , , , , , , , , , , , , , , , , , , ,
886.763649418021,-991.63017620291,-1878.39382562093,-133.290754025366,716.911945785729,399.864769846868,572.867928382632,975.629464211173,1170.91341176903,52.4332633924445,1382.57873751948,-1435.01200091192, , , , , , , , , , , , , , , , , , , , , , , , , , , , , , , , , , , , , , , , , , , , , , , , , , , , , , , , , , , , ,
943.785836564001,-1103.60893261357,-2047.39476917757,-141.764285342475,761.121353388678,431.826782231318,612.481303165886,947.858716833324,1144.15093200316,79.9115480247836,1495.59030287079,-1575.50185089557, , , , , , , , , , , , , , , , , , , , , , , , , , , , , , , , , , , , , , , , , , , , , , , , , , , , , , , , , , , , ,
1000.6253851276,-1230.75384970832,-2231.37923483593,-142.687442314584,800.382302690625,470.544340231699,657.251285427511,915.879376814412,1107.38126930394,115.064232290359,1616.00230998177,-1731.06654227212, , , , , , , , , , , , , , , , , , , , , , , , , , , , , , , , , , , , , , , , , , , , , , , , , , , , , , , , , , , , ,
1056.7594294951,-1365.13947759007,-2421.89890708516,-143.860141941954,845.552050837406,517.241509744601,709.064877791793,881.210542743678,1060.42577117313,154.190024047484,1739.32916829013,-1893.51919233761, , , , , , , , , , , , , , , , , , , , , , , , , , , , , , , , , , , , , , , , , , , , , , , , , , , , , , , , , , , , ,
1110.18893794645,-1516.58410346338,-2626.77304140983,-134.728876663996,897.576229508025,572.976564996967,769.537264079771,845.469903056784,1004.603899925,203.197582758465,1868.48098967814,-2071.67857243661, , , , , , , , , , , , , , , , , , , , , , , , , , , , , , , , , , , , , , , , , , , , , , , , , , , , , , , , , , , , ,
1163.43303983054,-1674.53079843001,-2837.96383826055,-125.510214591966,957.305844446587,638.590115802088,838.987372958752,810.302343123966,940.67243518439,255.548879299735,2000.69843904554,-2256.24731834528, , , , , , , , , , , , , , , , , , , , , , , , , , , , , , , , , , , , , , , , , , , , , , , , , , , , , , , , , , , , ,
1217.96195252969,-1847.40279061156,-3065.36474314126,-110.900801917671,1024.42822350005,717.685969186785,918.94127139325,777.309342725257,869.934512363696,314.720419040935,2141.66334783547,-2456.38376687641, , , , , , , , , , , , , , , , , , , , , , , , , , , , , , , , , , , , , , , , , , , , , , , , , , , , , , , , , , , , ,
1272.14762849182,-2025.7567626118,-3297.90439110363,-90.468312022423,1099.31475178462,804.503839673035,1009.93805153056,747.982620538628,793.879575500571,376.804567059989,2285.02600979773,-2661.83057685772, , , , , , , , , , , , , , , , , , , , , , , , , , , , , , , , , , , , , , , , , , , , , , , , , , , , , , , , , , , , ,
1324.71279012246,-2209.28081351862,-3533.99360364108,-66.0918025811585,1181.25804746693,902.990432771319,1112.66673542125,724.009938072376,713.872599737262,442.284011698083,2429.35319688177,-2871.63720857985, , , , , , , , , , , , , , , , , , , , , , , , , , , , , , , , , , , , , , , , , , , , , , , , , , , , , , , , , , , , ,
1375.79888115791,-2401.61967689551,-3777.41855805341,-37.1608699533796,1269.9513368357,1010.88763252168,1225.0945661305,709.018039815186,631.945115027481,512.910397868801,2576.60871960566,-3089.51911747446, , , , , , , , , , , , , , , , , , , , , , , , , , , , , , , , , , , , , , , , , , , , , , , , , , , , , , , , , , , , ,
1429.44756623826,-2591.5761900149,-4021.02375625315,-6.36050010917266,1363.97981836394,1131.29627656104,1347.84194446657,699.393449774177,549.040804307742,581.06431188832,2725.23566124571,-3306.29997313403, , , , , , , , , , , , , , , , , , , , , , , , , , , , , , , , , , , , , , , , , , , , , , , , , , , , , , , , , , , , ,
1483.02279310655,-2780.64399502971,-4263.66678813626,26.6783168704418,1462.37819168847,1257.53678955339,1480.70033955239,695.700705915364,468.252729865039,648.810600961577,2873.34479062141,-3522.15539158299, , , , , , , , , , , , , , , , , , , , , , , , , , , , , , , , , , , , , , , , , , , , , , , , , , , , , , , , , , , , ,
1536.09337746635,-2967.84149465027,-4503.93487211662,60.0945936970762,1563.77235727713,1393.02899626598,1622.39813420752,700.631165546466,421.411950013231,715.874058591961,3020.01412479149,-3735.88818338345, , , , , , , , , , , , , , , , , , , , , , , , , , , , , , , , , , , , , , , , , , , , , , , , , , , , , , , , , , , , ,
1587.56276391337,-3146.9056644062,-4734.46842831957,92.7941098232453,1666.6560681901,1532.4088511058,1770.03966888824,712.079032443157,378.528279200551,779.671450246415,3161.01559611647,-3940.68704636289, , , , , , , , , , , , , , , , , , , , , , , , , , , , , , , , , , , , , , , , , , , , , , , , , , , , , , , , , , , , ,
1640.72453501851,-3317.24131932902,-4957.96585434753,124.331885418819,1769.44156870871,1675.72406532209,1922.59021574369,730.662673185481,305.625584520374,838.258392155255,3299.34519468302,-4137.60358683827, , , , , , , , , , , , , , , , , , , , , , , , , , , , , , , , , , , , , , , , , , , , , , , , , , , , , , , , , , , , ,
1692.32505987114,-3476.70828082062,-5169.03334069176,153.451955472425,1870.50809407889,1820.73064884662,2078.24309483526,755.583067531886,237.772247778462,892.191610474735,3430.67920028145,-4322.87081075619, , , , , , , , , , , , , , , , , , , , , , , , , , , , , , , , , , , , , , , , , , , , , , , , , , , , , , , , , , , , ,
1744.25159840331,-3623.62728569287,-5367.87888409618,179.444686379664,1968.24626114072,1965.35504644128,2233.82281303258,785.702620204304,175.494202148274,939.687843644778,3556.06524124975,-4495.75308489453, , , , , , , , , , , , , , , , , , , , , , , , , , , , , , , , , , , , , , , , , , , , , , , , , , , , , , , , , , , , ,
1795.20014142331,-3757.17079980691,-5552.37094123022,203.318062517954,2061.09705613014,2106.99010795708,2386.20445904178,819.559910046015,119.040776293119,980.985329191795,3673.78554132677,-4654.77087051856, , , , , , , , , , , , , , , , , , , , , , , , , , , , , , , , , , , , , , , , , , , , , , , , , , , , , , , , , , , , ,
1844.53717213073,-3875.61429100772,-5720.15146313845,222.179414737124,2148.02878144763,2242.55988256926,2532.4875776627,855.394007653746,68.3755297476621,1015.53855943849,3782.34431763459,-4797.88287707308, , , , , , , , , , , , , , , , , , , , , , , , , , , , , , , , , , , , , , , , , , , , , , , , , , , , , , , , , , , , ,
1888.78736893138,-3979.1212785157,-5867.90864744708,238.180400194334,2226.78866689738,2369.78068600868,2669.58650364703,891.179621438783,34.0905447055091,1045.16695479216,3878.34800818923,-4923.51496298139, , , , , , , , , , , , , , , , , , , , , , , , , , , , , , , , , , , , , , , , , , , , , , , , , , , , , , , , , , , , ,
1932.60305413328,-4067.4108687421,-6000.01392287537,249.843424593024,2296.80576588788,2485.96410939255,2795.13737753754,924.673953960164,-1.03784190297983,1067.40390730441,3966.30848850433,-5033.71239580874, , , , , , , , , , , , , , , , , , , , , , , , , , , , , , , , , , , , , , , , , , , , , , , , , , , , , , , , , , , , ,
1972.84659991216,-4141.4141855903,-6114.26078550245,258.417081493285,2356.56385714403,2588.46749107531,2903.72976609313,953.475551668935,-37.3163159473136,1084.28379283907,4043.55369270731,-5127.83748554638, , , , , , , , , , , , , , , , , , , , , , , , , , , , , , , , , , , , , , , , , , , , , , , , , , , , , , , , , , , , ,
2008.31130860421,-4200.75173592484,-6209.06304452904,264.478467636272,2405.5836659354,2674.76013359364,2992.40086852524,975.094855390752,-70.5977841764823,1096.22021366031,4108.68717656662,-5204.90739022694, , , , , , , , , , , , , , , , , , , , , , , , , , , , , , , , , , , , , , , , , , , , , , , , , , , , , , , , , , , , ,
2037.13930255249,-4246.99246025905,-6284.13176281154,268.738478656492,2442.69134641464,2742.49473801194,3057.66267635097,987.035677307537,-102.089324624545,1104.92657885328,4160.63553268201,-5265.56211153529, , , , , , , , , , , , , , , , , , , , , , , , , , , , , , , , , , , , , , , , , , , , , , , , , , , , , , , , , , , , ,
2060.10490104393,-4280.52858476151,-6340.63348580544,272.000734990747,2467.59997586446,2789.58313014027,3096.99231729076,986.886309512219,-133.105184588541,1110.21184185879,4200.36919342469,-5310.58103528348, , , , , , , , , , , , , , , , , , , , , , , , , , , , , , , , , , , , , , , , , , , , , , , , , , , , , , , , , , , , ,
2075.37471392022,-4303.07226494795,-6378.44697886817,275.118406496241,2479.89498046002,2814.27454204783,3107.80715974282,972.834271560847,-165.004154501296,1113.84877551387,4226.9108463942,-5340.75962190806, , , , , , , , , , , , , , , , , , , , , , , , , , , , , , , , , , , , , , , , , , , , , , , , , , , , , , , , , , , , ,
2082.07712426249,-4314.88574823994,-6396.96287250243,279.475698660297,2479.98024065472,2815.23375144458,3088.05119797082,942.375620502939,-199.121881960735,1116.40431198872,4239.51999838246,-5355.92431037119, , , , , , , , , , , , , , , , , , , , , , , , , , , , , , , , , , , , , , , , , , , , , , , , , , , , , , , , , , , , ,
2079.46973900928,-4318.25669946844,-6397.72643847772,286.174670194552,2467.48136399043,2791.61546184255,3036.31721960678,897.260845117415,-236.701149007315,1119.39348022958,4238.5980887435,-5357.99156897308, , , , , , , , , , , , , , , , , , , , , , , , , , , , , , , , , , , , , , , , , , , , , , , , , , , , , , , , , , , , ,
2066.98516178455,-4312.48243427998,-6379.46759606453,293.842059309282,2442.44738168841,2743.1305717582,2951.95795071802,831.801382424244,-278.823894919621,1122.74863624772,4223.22637892454,-5345.97501517226, , , , , , , , , , , , , , , , , , , , , , , , , , , , , , , , , , , , , , , , , , , , , , , , , , , , , , , , , , , , ,
2044.27115895192,-4300.24012129523,-6344.51128024715,304.493299386162,2405.7796671886,2670.09948623601,2835.17764075453,746.117578891534,-326.34924970436,1127.98448117166,4194.39121959953,-5322.37570077119, , , , , , , , , , , , , , , , , , , , , , , , , , , , , , , , , , , , , , , , , , , , , , , , , , , , , , , , , , , , ,
2011.22205038927,-4280.47587126313,-6291.6979216524,319.866526584131,2358.10218287459,2573.48736709343,2687.09522573043,642.613278323248,-379.861863242668,1134.62691043693,4151.45998602083,-5286.08689645777, , , , , , , , , , , , , , , , , , , , , , , , , , , , , , , , , , , , , , , , , , , , , , , , , , , , , , , , , , , , ,
1967.998691035,-4254.81494520634,-6222.81363624133,337.877345048549,2300.61838734301,2454.99760756053,2509.77057946636,518.219527544251,-439.634341130484,1143.40812708567,4095.40616363816,-5238.81429072383, , , , , , , , , , , , , , , , , , , , , , , , , , , , , , , , , , , , , , , , , , , , , , , , , , , , , , , , , , , , ,
1915.03517063087,-4223.84777919132,-6138.8829498222,359.960730560837,2234.6997492885,2316.73034918144,2306.18650998941,378.303044392632,-505.606724671197,1154.40630428023,4026.95906022653,-5181.36536450676, , , , , , , , , , , , , , , , , , , , , , , , , , , , , , , , , , , , , , , , , , , , , , , , , , , , , , , , , , , , ,
1853.03121959514,-4188.0662898892,-6041.09750948434,386.276639662548,2161.87547956163,2161.7183566734,2080.18128365279,222.144892391184,-577.38480131728,1167.51753514703,3947.06436453974,-5114.58189968677, , , , , , , , , , , , , , , , , , , , , , , , , , , , , , , , , , , , , , , , , , , , , , , , , , , , , , , , , , , , ,
1782.93020599308,-4147.87601862462,-5930.8062246177,416.806499671431,2083.85764232355,1993.13981893783,1836.32977854316,53.9293426290152,-654.257699996929,1182.47290631577,3856.86821530539,-5039.34112162116, , , , , , , , , , , , , , , , , , , , , , , , , , , , , , , , , , , , , , , , , , , , , , , , , , , , , , , , , , , , ,
1705.88353759048,-4103.61105832272,-5809.4945959132,451.415472299222,2002.49630172603,1815.49116974178,1579.77588527401,-123.147022040029,-735.233799206102,1198.86376036612,3757.68906675184,-4956.55282711796, , , , , , , , , , , , , , , , , , , , , , , , , , , , , , , , , , , , , , , , , , , , , , , , , , , , , , , , , , , , ,
1623.20326122332,-4055.55009625194,-5678.75335747527,490.228005853085,1919.72301920679,1631.52609357061,1316.02414411739,-305.552019072948,-819.092551640378,1216.17341751431,3650.97830934929,-4867.1517268636, , , , , , , , , , , , , , , , , , , , , , , , , , , , , , , , , , , , , , , , , , , , , , , , , , , , , , , , , , , , ,
1536.30565216124,-4003.93212109587,-5540.23777325712,532.213645646308,1837.4857465527,1446.55287350453,1050.70407311089,-489.577919652246,-904.448529053089,1233.81323446731,3538.27171270918,-4772.0849471765, , , , , , , , , , , , , , , , , , , , , , , , , , , , , , , , , , , , , , , , , , , , , , , , , , , , , , , , , , , , ,
1446.64947059356,-3948.9706235309,-5395.62009412446,577.357430155798,1757.67985186681,1263.50898621064,789.324991052949,-671.511853103962,-989.822986409588,1251.16057646867,3421.13478235901,-4672.29535882768, , , , , , , , , , , , , , , , , , , , , , , , , , , , , , , , , , , , , , , , , , , , , , , , , , , , , , , , , , , , ,
1355.67310260462,-3890.86544083437,-5246.53854343899,626.171168520239,1682.08089295614,1086.84346897131,537.041007527753,-847.803126707016,-1073.71773862705,1267.59616911488,3301.1058230218,-4568.70199213668, , , , , , , , , , , , , , , , , , , , , , , , , , , , , , , , , , , , , , , , , , , , , , , , , , , , , , , , , , , , ,
1264.7348192804,-3829.81170290349,-5094.54652218388,676.375564388577,1612.28451234415,919.826304389659,298.444475812723,-1015.2147079475,-1154.68625615671,1282.53844181155,3179.64067073214,-4462.17911254369, , , , , , , , , , , , , , , , , , , , , , , , , , , , , , , , , , , , , , , , , , , , , , , , , , , , , , , , , , , , ,
1175.05989098382,-3766.00560045307,-4941.0654914369,729.697519281752,1549.65761859546,765.571965214049,77.4020229627595,-1170.94861989378,-1231.39754514138,1295.47285473463,3058.06269121036,-4353.53554594499, , , , , , , , , , , , , , , , , , , , , , , , , , , , , , , , , , , , , , , , , , , , , , , , , , , , , , , , , , , , ,
1087.69747825288,-3699.64694934153,-4787.34442759441,783.258819891302,1495.30334658206,626.262887310237,-123.058316936083,-1312.73847267019,-1302.68936087905,1305.97473554433,2937.52095292364,-4243.49568846797, , , , , , , , , , , , , , , , , , , , , , , , , , , , , , , , , , , , , , , , , , , , , , , , , , , , , , , , , , , , ,
1003.48930694922,-3630.93881862874,-4634.42812557796,839.103480941891,1450.04068703391,504.237104201914,-300.805870176308,-1438.90590114246,-1367.60839034486,1313.72475583976,2818.95871626359,-4132.68347210335, , , , , , , , , , , , , , , , , , , , , , , , , , , , , , , , , , , , , , , , , , , , , , , , , , , , , , , , , , , , ,
923.051237344122,-3560.08481520292,-4483.13605254704,894.52414377948,1414.92304427605,399.601136565112,-454.613616711398,-1548.38078362648,-1425.43611533157,1318.5167889294,2703.09364494558,-4021.61043387498, , , , , , , , , , , , , , , , , , , , , , , , , , , , , , , , , , , , , , , , , , , , , , , , , , , , , , , , , , , , ,
846.767966290262,-3487.28488464927,-4334.05285093954,951.343599691866,1389.14699470238,313.884066343302,-584.117130155817,-1640.68763357169,-1475.70009505609,1320.25845917951,2590.4104086149,-3910.6688677944, , , , , , , , , , , , , , , , , , , , , , , , , , , , , , , , , , , , , , , , , , , , , , , , , , , , , , , , , , , , ,
774.800254915728,-3413.32014050956,-4188.12039542529,1007.53614863126,1373.22310797757,246.421889769609,-689.733742702835,-1715.90250103004,-1518.17135667214,1319.25994279691,2481.46032517051,-3800.72026796742, , , , , , , , , , , , , , , , , , , , , , , , , , , , , , , , , , , , , , , , , , , , , , , , , , , , , , , , , , , , ,
707.103299593591,-3337.19029933309,-4044.29359892668,1063.86597751959,1366.88798810906,196.666240692849,-772.551080242435,-1774.58612916662,-1552.84941151804,1315.04349986975,2375.69844926014,-3690.74194912989, , , , , , , , , , , , , , , , , , , , , , , , , , , , , , , , , , , , , , , , , , , , , , , , , , , , , , , , , , , , ,
643.454249886782,-3259.83956546913,-3903.29381535592,1120.25620001254,1369.79811301117,163.67248682826,-834.194908256313,-1817.70000131469,-1579.93708180094,1308.19265779117,2273.37403262135,-3581.56669041252, , , , , , , , , , , , , , , , , , , , , , , , , , , , , , , , , , , , , , , , , , , , , , , , , , , , , , , , , , , , ,
583.486477301229,-3181.02897690932,-3764.51545421054,1176.69431198779,1381.12839443896,146.190704299614,-876.686331304102,-1846.51228568005,-1599.80778941955,1298.77124980404,2174.00096575589,-3472.77221555993, , , , , , , , , , , , , , , , , , , , , , , , , , , , , , , , , , , , , , , , , , , , , , , , , , , , , , , , , , , , ,
526.727989840204,-3102.60321164764,-3629.33120148785,1233.2276803653,1400.70259176627,142.759537882991,-900.643598378265,-1862.50054171942,-1612.968194063,1287.93761090372,2078.02959566403,-3365.96720656775, , , , , , , , , , , , , , , , , , , , , , , , , , , , , , , , , , , , , , , , , , , , , , , , , , , , , , , , , , , , ,
472.641329555589,-3021.62221932827,-3494.26354888386,1289.95718210627,1426.83512543976,151.797422238852,-911.740449949641,-1867.25743411355,-1620.01905698146,1274.49044488634,1983.45243921973,-3257.94288410607, , , , , , , , , , , , , , , , , , , , , , , , , , , , , , , , , , , , , , , , , , , , , , , , , , , , , , , , , , , , ,
420.662400931272,-2939.7788214021,-3360.44122233338,1347.0292500178,1459.4240454549,171.686380046839,-910.741839575167,-1862.4046913718,-1621.61696397342,1259.55821023542,1890.55181163232,-3150.11002186774, , , , , , , , , , , , , , , , , , , , , , , , , , , , , , , , , , , , , , , , , , , , , , , , , , , , , , , , , , , , ,
370.236000888528,-2857.03240318569,-3227.26840407422,1404.6265284951,1497.10131914736,200.389754023416,-897.721189307156,-1849.5192634836,-1618.43910669428,1243.39820114858,1798.75220248138,-3042.15040362996, , , , , , , , , , , , , , , , , , , , , , , , , , , , , , , , , , , , , , , , , , , , , , , , , , , , , , , , , , , , ,
320.846334759799,-2775.32670520049,-3096.17303996029,1462.95732328005,1539.6962300976,236.724597344529,-876.877546553453,-1830.07422066408,-1611.1527554709,1227.24018522034,1708.50968736004,-2935.74987258039, , , , , , , , , , , , , , , , , , , , , , , , , , , , , , , , , , , , , , , , , , , , , , , , , , , , , , , , , , , , ,
272.041402760222,-2691.20313369274,-2963.24453645296,1522.256250932,1585.86017795603,279.353955229882,-852.035694271551,-1805.39555689506,-1600.39043864311,1209.58086546626,1617.64296960659,-2827.22383507285, , , , , , , , , , , , , , , , , , , , , , , , , , , , , , , , , , , , , , , , , , , , , , , , , , , , , , , , , , , , ,
223.450720393705,-2607.11232161392,-2830.56304200762,1582.72314532603,1635.42604663481,327.642653889976,-821.227297455362,-1776.63485101747,-1586.73125362718,1191.83080061011,1527.00688120066,-2718.83768181077, , , , , , , , , , , , , , , , , , , , , , , , , , , , , , , , , , , , , , , , , , , , , , , , , , , , , , , , , , , , ,
174.796349105597,-2522.09264627337,-2696.88899537897,1644.81480920009,1687.59603576033,379.712117920262,-789.056661924448,-1744.75673574314,-1570.68821833598,1173.64814858389,1435.84267224228,-2609.49082082617, , , , , , , , , , , , , , , , , , , , , , , , , , , , , , , , , , , , , , , , , , , , , , , , , , , , , , , , , , , , ,
125.897663897733,-2437.46397977441,-2563.36164367215,1708.25853963466,1742.5437716956,434.959115638511,-754.834738996444,-1710.53930591359,-1552.70114095036,1155.78315793834,1344.62965378494,-2500.41281172328, , , , , , , , , , , , , , , , , , , , , , , , , , , , , , , , , , , , , , , , , , , , , , , , , , , , , , , , , , , , ,
76.6706650986027,-2352.20460680444,-2428.87527190304,1773.47638340772,1798.95209863067,493.480524334462,-719.159541194676,-1674.58496683526,-1533.13416842858,1137.76697085292,1252.77296850082,-2390.53993935374, , , , , , , , , , , , , , , , , , , , , , , , , , , , , , , , , , , , , , , , , , , , , , , , , , , , , , , , , , , , ,
27.1229083134568,-2267.89868100697,-2295.02158932043,1840.50201793594,1857.53903468188,554.209883477128,-682.513956310198,-1637.33884783391,-1512.27701289569,1120.38788634676,1161.07224881694,-2281.4601351637, , , , , , , , , , , , , , , , , , , , , , , , , , , , , , , , , , , , , , , , , , , , , , , , , , , , , , , , , , , , ,
-22.6547677235654,-2183.25455176386,-2160.5997840403,1909.48197116176,1916.92433069445,615.266141314037,-645.197160684341,-1599.1118433422,-1490.34885514002,1102.95465974371,1068.97250815837,-2171.92716790208, , , , , , , , , , , , , , , , , , , , , , , , , , , , , , , , , , , , , , , , , , , , , , , , , , , , , , , , , , , , ,
-72.6193300406335,-2100.15109226477,-2027.53176222414,1980.28541904827,1978.04617508151,678.940586138798,-607.369629590768,-1561.56653048907,-1467.504038808,1086.3852111527,977.456216091751,-2063.84142724445, , , , , , , , , , , , , , , , , , , , , , , , , , , , , , , , , , , , , , , , , , , , , , , , , , , , , , , , , , , , ,
-122.304244734724,-2017.13006618482,-1894.8258214501,2052.89271872473,2039.37981217501,743.665705144695,-569.097026397263,-1522.07772767924,-1445.16627147608,1069.71715545977,886.260788357686,-1955.97794381746, , , , , , , , , , , , , , , , , , , , , , , , , , , , , , , , , , , , , , , , , , , , , , , , , , , , , , , , , , , , ,
-171.648544989966,-1936.40193389521,-1764.75338890524,2127.51153499449,2101.48344596504,808.647290426885,-530.390057825159,-1483.28012984153,-1420.8327686858,1054.02523944259,796.552421957639,-1850.57766140023, , , , , , , , , , , , , , , , , , , , , , , , , , , , , , , , , , , , , , , , , , , , , , , , , , , , , , , , , , , , ,
-220.156788234798,-1856.0547065605,-1635.8979183257,2203.69013108994,2163.39750734708,872.795074429439,-491.238415171017,-1443.79225344943,-1397.24736447484,1038.10574739765,707.870565045452,-1745.9763124431, , , , , , , , , , , , , , , , , , , , , , , , , , , , , , , , , , , , , , , , , , , , , , , , , , , , , , , , , , , , ,
-269.008099564878,-1778.12873741612,-1509.12063785124,2280.6716982669,2225.18231616044,936.273026404697,-451.637958075174,-1402.31773467158,-1371.32572483162,1023.5684184905,620.056269143181,-1643.62468763368, , , , , , , , , , , , , , , , , , , , , , , , , , , , , , , , , , , , , , , , , , , , , , , , , , , , , , , , , , , , ,
-317.583580407703,-1701.3889993493,-1383.8054189416,2358.45019044282,2286.57981053383,998.980442113611,-411.611207900108,-1360.21508323635,-1344.91974492192,1009.4862898785,533.110919266946,-1542.59720914545, , , , , , , , , , , , , , , , , , , , , , , , , , , , , , , , , , , , , , , , , , , , , , , , , , , , , , , , , , , , ,
-362.795074744654,-1627.93705514922,-1265.14198040457,2436.63750292879,2346.34063529543,1060.38441220223,-371.22187904064,-1317.46230155198,-1318.30626283931,995.366064946936,451.173452829956,-1446.53951777689, , , , , , , , , , , , , , , , , , , , , , , , , , , , , , , , , , , , , , , , , , , , , , , , , , , , , , , , , , , , ,
-404.967727650686,-1555.45193594023,-1150.48420828955,2514.8527477569,2403.26498226512,1119.90070400922,-330.584508731895,-1274.048472142,-1289.837681647,980.209831795459,372.758240319431,-1352.96807211489, , , , , , , , , , , , , , , , , , , , , , , , , , , , , , , , , , , , , , , , , , , , , , , , , , , , , , , , , , , , ,
-444.773835978499,-1486.86817078857,-1042.09433481007,2592.33115196238,2457.72513141413,1176.90064246669,-289.870259764264,-1229.98319917457,-1260.65879112659,965.821003383533,298.660249415785,-1264.48125279932, , , , , , , , , , , , , , , , , , , , , , , , , , , , , , , , , , , , , , , , , , , , , , , , , , , , , , , , , , , , ,
-481.97066635837,-1418.88779298237,-936.917126624005,2668.82595294812,2509.79731161791,1230.72075978275,-249.309757555256,-1185.30549779934,-1230.32182225758,950.429229670372,227.473230132817,-1177.90245980319, , , , , , , , , , , , , , , , , , , , , , , , , , , , , , , , , , , , , , , , , , , , , , , , , , , , , , , , , , , , ,
-516.37100978683,-1353.38838790276,-837.017378115934,2743.94539474104,2557.7997606072,1280.67437702915,-209.193499132779,-1140.09214138004,-1199.70789551878,934.879698844797,160.323184164552,-1095.20288300935, , , , , , , , , , , , , , , , , , , , , , , , , , , , , , , , , , , , , , , , , , , , , , , , , , , , , , , , , , , , ,
-547.851193964564,-1289.77476548698,-741.923571522421,2817.00931691379,2599.63392868555,1326.06460791314,-169.870036150534,-1094.46517374435,-1166.49562279284,918.812979725774,97.0361887789285,-1015.8491685047, , , , , , , , , , , , , , , , , , , , , , , , , , , , , , , , , , , , , , , , , , , , , , , , , , , , , , , , , , , , ,
-576.355755058247,-1228.89180073879,-652.536045680544,2887.66196518412,2637.24333332494,1366.1985289263,-131.741864127732,-1048.59805211406,-1133.751670308,902.623777898519,38.0901453111488,-940.713923209668, , , , , , , , , , , , , , , , , , , , , , , , , , , , , , , , , , , , , , , , , , , , , , , , , , , , , , , , , , , , ,
-601.898230831804,-1169.25891379992,-567.360682968119,2955.38939090462,2667.49207678464,1400.40240472518,-95.2587961842641,-1002.71974788992,-1098.69462038095,885.578572315863,-17.2687739318424,-868.309798384021, , , , , , , , , , , , , , , , , , , , , , , , , , , , , , , , , , , , , , , , , , , , , , , , , , , , , , , , , , , , ,
-624.557828648423,-1111.9873285579,-487.429499909478,3019.83808808073,2691.33262946628,1428.03789964428,-60.908571983703,-957.116109576392,-1063.5191200602,868.272578603162,-68.5641643694722,-799.70841423369, , , , , , , , , , , , , , , , , , , , , , , , , , , , , , , , , , , , , , , , , , , , , , , , , , , , , , , , , , , , ,
-644.472089302729,-1055.92814056992,-411.456051267188,3080.5012151828,2706.41785840395,1448.51915852505,-29.2045263913117,-912.127854281695,-1028.00517303003,850.200114936323,-116.508019017771,-733.692095918553, , , , , , , , , , , , , , , , , , , , , , , , , , , , , , , , , , , , , , , , , , , , , , , , , , , , , , , , , , , , ,
-661.826029883876,-1002.23489080162,-340.408860917742,3136.89062558306,2714.70506752012,1461.33050013801,-0.670289683849191,-868.144667332087,-990.754014201281,832.030460342747,-160.708584483067,-671.32187585968, , , , , , , , , , , , , , , , , , , , , , , , , , , , , , , , , , , , , , , , , , , , , , , , , , , , , , , , , , , , ,
-676.838567224519,-949.549027247537,-272.710460023019,3188.77643796126,2712.91175392834,1466.04423846409,24.1782944473894,-825.595060576625,-953.544603869025,813.193797236028,-202.06405360075,-611.129743635278, , , , , , , , , , , , , , , , , , , , , , , , , , , , , , , , , , , , , , , , , , , , , , , , , , , , , , , , , , , , ,
-689.747268988674,-900.46187369959,-210.714604710917,3235.50381320631,2703.31485805288,1462.33788709776,44.8535708465149,-784.931902727108,-916.754837127085,795.104571344132,-239.516332138879,-555.588239205254, , , , , , , , , , , , , , , , , , , , , , , , , , , , , , , , , , , , , , , , , , , , , , , , , , , , , , , , , , , , ,
-700.792591630166,-851.28856140527,-150.495969775104,3276.84202741082,2683.29971905958,1450.00982054298,60.9180333762829,-746.613901598856,-880.78468476672,776.040576517718,-275.148310927531,-500.892265590187, , , , , , , , , , , , , , , , , , , , , , , , , , , , , , , , , , , , , , , , , , , , , , , , , , , , , , , , , , , , ,
-710.202708538354,-805.009909774428,-94.8072012360739,3312.29162590465,2653.87070305758,1428.99244272646,74.3555011688548,-711.083759341238,-846.037767284396,757.606309156391,-307.69775365114,-449.908555505251, , , , , , , , , , , , , , , , , , , , , , , , , , , , , , , , , , , , , , , , , , , , , , , , , , , , , , , , , , , , ,
-718.179861693879,-759.806739163878,-41.6268774699996,3341.58399784998,2616.76380997822,1399.36201425509,82.5975981342872,-678.744178716171,-812.900913694842,738.993300428879,-338.27649211194,-400.716808316939, , , , , , , , , , , , , , , , , , , , , , , , , , , , , , , , , , , , , , , , , , , , , , , , , , , , , , , , , , , , ,
-724.888976432877,-717.735552673225,7.15342375965145,3363.85127909131,2569.28353189245,1361.34442795604,85.4801494450542,-649.933289391048,-781.723052413957,721.312264553051,-366.021200096264,-355.291064456787, , , , , , , , , , , , , , , , , , , , , , , , , , , , , , , , , , , , , , , , , , , , , , , , , , , , , , , , , , , , ,
-730.449092991554,-677.105434939099,53.3436580524551,3379.34595991811,2513.18680012609,1315.31638286154,81.1042240849106,-624.901298212259,-752.837760883486,703.777263965327,-391.896375522005,-311.880888443322, , , , , , , , , , , , , , , , , , , , , , , , , , , , , , , , , , , , , , , , , , , , , , , , , , , , , , , , , , , , ,
-734.927967867517,-639.446190880893,95.4817769866238,3386.88138597834,2449.68951015959,1261.80163979367,72.6630323564366,-603.790195503504,-726.372858219696,687.187079374205,-415.20487242707,-271.982206947135, , , , , , , , , , , , , , , , , , , , , , , , , , , , , , , , , , , , , , , , , , , , , , , , , , , , , , , , , , , , ,
-738.339983087319,-603.870146317716,134.469836769603,3385.9206357488,2378.27706148039,1201.46232975119,59.7970419337469,-586.618193009666,-703.699530644136,671.105064702517,-436.404909928461,-234.700154774057, , , , , , , , , , , , , , , , , , , , , , , , , , , , , , , , , , , , , , , , , , , , , , , , , , , , , , , , , , , , ,
-740.64731373169,-572.081274719439,168.566039012251,3376.45699534011,2301.08259522937,1135.08552794607,42.2813505711772,-573.270285711926,-682.466296970953,656.364294225565,-454.60667637197,-201.757617853594, , , , , , , , , , , , , , , , , , , , , , , , , , , , , , , , , , , , , , , , , , , , , , , , , , , , , , , , , , , , ,
-741.764176621342,-541.645332387928,200.118844233414,3357.8782963764,2217.62093160964,1063.56545289685,20.6166101143103,-563.495945116201,-663.720331423961,641.704754504635,-470.941510427378,-170.763244077257, , , , , , , , , , , , , , , , , , , , , , , , , , , , , , , , , , , , , , , , , , , , , , , , , , , , , , , , , , , , ,
-741.563912219701,-513.746829348072,227.817082871629,3330.08584592859,2130.66934490427,987.881761505261,-6.87204319292253,-556.914463387605,-647.310559789533,627.655370783887,-484.690497545665,-142.964873238222, , , , , , , , , , , , , , , , , , , , , , , , , , , , , , , , , , , , , , , , , , , , , , , , , , , , , , , , , , , , ,
-739.888609229127,-488.124904375911,251.763704853216,3291.97790785198,2038.53745801836,909.074549893042,-36.695680134125,-553.027903308676,-632.951751651439,614.006756802519,-495.826157041172,-118.180599761348, , , , , , , , , , , , , , , , , , , , , , , , , , , , , , , , , , , , , , , , , , , , , , , , , , , , , , , , , , , , ,
-736.560926099691,-464.286925716779,272.274000382911,3243.82089751288,1943.23471274974,828.216836513123,-66.6110310730703,-551.241035746995,-620.274355462621,600.423925908235,-504.417463241301,-96.0064626669345, , , , , , , , , , , , , , , , , , , , , , , , , , , , , , , , , , , , , , , , , , , , , , , , , , , , , , , , , , , , ,
-731.397652595753,-443.342376857214,288.055275738539,3185.18459557358,1847.04953035758,746.385499394528,-97.2508804823096,-550.110673001112,-608.842071028922,587.370014726483,-509.726464167146,-77.6435505593377, , , , , , , , , , , , , , , , , , , , , , , , , , , , , , , , , , , , , , , , , , , , , , , , , , , , , , , , , , , , ,
-724.224372300279,-422.347210476442,301.877161823837,3116.18438778461,1748.79154089477,664.631885885486,-130.062403414741,-549.876736973164,-598.173198775462,573.285791388361,-513.050767062058,-60.235024326303, , , , , , , , , , , , , , , , , , , , , , , , , , , , , , , , , , , , , , , , , , , , , , , , , , , , , , , , , , , , ,
-714.890375542431,-402.948521683586,311.941853858845,3037.53842379435,1649.03044984774,583.953573906679,-159.881624652449,-549.679183021036,-587.764484720196,558.919448613009,-513.416114700638,-45.5033339123707, , , , , , , , , , , , , , , , , , , , , , , , , , , , , , , , , , , , , , , , , , , , , , , , , , , , , , , , , , , , ,
-703.282814444801,-383.181231964116,320.101582480685,2948.14544929346,1549.71283242212,505.268909944954,-189.354068859215,-548.470182500972,-577.116024534678,543.232023204459,-511.692198462743,-31.5398247417155, , , , , , , , , , , , , , , , , , , , , , , , , , , , , , , , , , , , , , , , , , , , , , , , , , , , , , , , , , , , ,
-689.339053680797,-364.737994957785,324.601058723012,2848.8620441703,1451.09369852898,429.395857989524,-217.531842212071,-546.551530486265,-565.755734677742,527.038524319291,-506.970056201905,-20.0684681173865, , , , , , , , , , , , , , , , , , , , , , , , , , , , , , , , , , , , , , , , , , , , , , , , , , , , , , , , , , , , ,
-673.056265250402,-345.517406561788,327.538858688614,2740.87827855867,1352.22609183017,357.036354025484,-242.891815838704,-541.841097724182,-553.261947494151,509.286835906095,-500.297561969508,-8.98927393658707, , , , , , , , , , , , , , , , , , , , , , , , , , , , , , , , , , , , , , , , , , , , , , , , , , , , , , , , , , , , ,
-654.497509757368,-325.87586829504,328.621641462328,2624.0349836726,1254.66310386785,288.766864381283,-264.987192054591,-535.843621862616,-539.282835549455,490.186689026204,-491.559575609848,1.37288658364375, , , , , , , , , , , , , , , , , , , , , , , , , , , , , , , , , , , , , , , , , , , , , , , , , , , , , , , , , , , , ,
-633.79378804727,-304.771883350397,329.021904696873,2499.89672923394,1158.40036755627,225.035299031047,-282.892855602609,-527.338080520197,-523.551602264637,469.282835698834,-481.407846372072,12.1250106732379, , , , , , , , , , , , , , , , , , , , , , , , , , , , , , , , , , , , , , , , , , , , , , , , , , , , , , , , , , , , ,
-611.141807691683,-285.37148277069,325.770324920992,2369.34045244637,1063.91713738821,166.16389446224,-297.015787759264,-515.968871945554,-505.89667215317,448.256645231186,-468.456066306337,20.1994210751508, , , , , , , , , , , , , , , , , , , , , , , , , , , , , , , , , , , , , , , , , , , , , , , , , , , , , , , , , , , , ,
-586.797507381144,-261.674632950608,325.122874430536,2233.81012300316,976.178246264529,112.35718737206,-306.193746796168,-501.666116997734,-486.246460552479,424.236070165876,-455.96019090584,31.7241207399641, , , , , , , , , , , , , , , , , , , , , , , , , , , , , , , , , , , , , , , , , , , , , , , , , , , , , , , , , , , , ,
-561.065737933307,-239.715545019046,321.350192914261,2094.95648375868,887.107458645024,63.7137888688871,-313.436465859851,-484.486254488148,-464.628682617481,400.390641476177,-441.207965423784,40.817323947607, , , , , , , , , , , , , , , , , , , , , , , , , , , , , , , , , , , , , , , , , , , , , , , , , , , , , , , , , , , , ,
-534.28687122402,-214.244536256422,320.042334967598,1954.84797038222,801.630525732595,20.2403937764292,-316.574795878934,-464.600917378978,-441.164542699251,374.265703740222,-427.164603095809,52.8988993555874, , , , , , , , , , , , , , , , , , , , , , , , , , , , , , , , , , , , , , , , , , , , , , , , , , , , , , , , , , , , ,
-506.821413965473,-187.934118761979,318.887295203493,1818.2682151656,725.399038629936,-18.1336151290387,-314.360520146023,-442.393824994114,-416.05848281335,347.377766363726,-412.854354584483,65.4765882207566, , , , , , , , , , , , , , , , , , , , , , , , , , , , , , , , , , , , , , , , , , , , , , , , , , , , , , , , , , , , ,
-479.03388065123,-162.434384947948,316.599495703282,1684.91487252665,645.664298881884,-51.5424394134944,-308.540499720639,-418.030879238371,-389.584419627733,320.734132799589,-397.816688177256,77.0825553776669, , , , , , , , , , , , , , , , , , , , , , , , , , , , , , , , , , , , , , , , , , , , , , , , , , , , , , , , , , , , ,
-451.277217830034,-134.817850737203,316.459367092831,1546.6889052967,570.833605101737,-80.1720972537704,-301.994094525024,-392.055339231058,-362.069540966304,293.047534283618,-383.868292461432,90.8207581778138, , , , , , , , , , , , , , , , , , , , , , , , , , , , , , , , , , , , , , , , , , , , , , , , , , , , , , , , , , , , ,
-423.878975800632,-107.323661442937,316.555314357694,1413.78327710737,501.114773747206,-96.3860106927915,-291.060525220769,-364.85456670526,-333.87676767602,265.601318621785,-370.217145079163,104.615826457378, , , , , , , , , , , , , , , , , , , , , , , , , , , , , , , , , , , , , , , , , , , , , , , , , , , , , , , , , , , , ,
-397.130193170113,-78.8180845580349,318.312108612078,1290.57042853948,437.203962736098,-96.3860106927915,-280.019827878413,-337.754418308568,-305.386931564539,237.974138864074,-357.721150891095,119.747012027021, , , , , , , , , , , , , , , , , , , , , , , , , , , , , , , , , , , , , , , , , , , , , , , , , , , , , , , , , , , , ,
-371.277614678872,-50.2371085846949,321.040506094177,1174.16441531695,374.867146370363,-96.3860106927915,-265.646163907189,-309.461878322481,-276.981601817623,210.757361631784,-346.159060386525,135.401698754741, , , , , , , , , , , , , , , , , , , , , , , , , , , , , , , , , , , , , , , , , , , , , , , , , , , , , , , , , , , , ,
-346.519469195451,-22.1097202860891,324.409748909361,1057.492259663,314.853949835487,-99.4111087090551,-252.298190273671,-281.179295646448,-249.027348560646,184.31459474077,-335.464609052406,151.150014311636, , , , , , , , , , , , , , , , , , , , , , , , , , , , , , , , , , , , , , , , , , , , , , , , , , , , , , , , , , , , ,
-323.004678209547,3.22241654834997,326.227094757897,947.540118171219,263.001915545155,-107.851645259268,-237.619878126076,-253.473311101737,-221.862094296283,159.891130830599,-324.615886483722,164.724755653123, , , , , , , , , , , , , , , , , , , , , , , , , , , , , , , , , , , , , , , , , , , , , , , , , , , , , , , , , , , , ,
-300.835096406891,28.3354333647908,329.170529771682,844.963337041899,216.446827440895,-113.452976686006,-220.927705711495,-226.701461107803,-195.784071877396,136.24983152105,-315.002813089287,178.752981568236, , , , , , , , , , , , , , , , , , , , , , , , , , , , , , , , , , , , , , , , , , , , , , , , , , , , , , , , , , , , ,
-280.070195568051,49.5530301359312,329.623225703981,749.954455002248,172.863338389814,-115.696365492489,-204.511959049617,-200.98511124395,-171.043755577904,115.25858271606,-304.846710636016,189.588127919956, , , , , , , , , , , , , , , , , , , , , , , , , , , , , , , , , , , , , , , , , , , , , , , , , , , , , , , , , , , , ,
-260.733458087174,69.9469173121633,330.680375399337,661.716435104636,132.926314231055,-116.257519693735,-190.413577884707,-177.594401648549,-147.838941775767,95.3932703875055,-295.706916743256,200.31364635575, , , , , , , , , , , , , , , , , , , , , , , , , , , , , , , , , , , , , , , , , , , , , , , , , , , , , , , , , , , , ,
-242.819653701178,91.7088381523193,334.528491853497,580.911020408371,100.773590003666,-115.008421251708,-174.734550421968,-155.492684665194,-126.312939819402,75.5554077744294,-288.674072777337,213.118665002908, , , , , , , , , , , , , , , , , , , , , , , , , , , , , , , , , , , , , , , , , , , , , , , , , , , , , , , , , , , , ,
-226.302183043455,114.487855275244,340.790038318699,510.699572717191,72.2886057120179,-112.214884731965,-161.672125910044,-134.564931314714,-106.555622922579,55.9071638841054,-283.546110681077,227.638946796971, , , , , , , , , , , , , , , , , , , , , , , , , , , , , , , , , , , , , , , , , , , , , , , , , , , , , , , , , , , , ,
-211.139808100497,131.773405162876,342.913213263372,442.932143750434,46.1315956810817,-108.32844736374,-147.758051242077,-115.701723047363,-88.6069077312413,39.6832014688107,-277.026510681935,237.343309213124, , , , , , , , , , , , , , , , , , , , , , , , , , , , , , , , , , , , , , , , , , , , , , , , , , , , , , , , , , , , ,
-197.282301745613,147.774067498987,345.0563692446,382.361779922428,23.8993818506746,-106.086956242254,-136.736407260955,-98.8472072536066,-72.4620877403506,24.754117123313,-271.169335495107,246.415218371794, , , , , , , , , , , , , , , , , , , , , , , , , , , , , , , , , , , , , , , , , , , , , , , , , , , , , , , , , , , , ,
-184.674752717215,166.58087149582,351.255624213035,325.338134293808,2.64688382371078,-103.504170929382,-124.872718969609,-83.8047923480745,-58.0783482263901,9.04694061069763,-267.965188465125,258.918247854427, , , , , , , , , , , , , , , , , , , , , , , , , , , , , , , , , , , , , , , , , , , , , , , , , , , , , , , , , , , , ,
-173.260411825213,182.598108327286,355.8585201525,273.911872289772,-16.443373383477,-100.861558630644,-114.299711578991,-70.701802175333,-45.3817621429732,-4.66884825103649,-264.559465988856,269.228314239893, , , , , , , , , , , , , , , , , , , , , , , , , , , , , , , , , , , , , , , , , , , , , , , , , , , , , , , , , , , , ,
-162.982067691286,194.417076816507,357.399144507792,225.840602419967,-32.8641786309756,-98.5901446871161,-105.053873075655,-58.8862552819504,-34.274134183873,-15.7175045626104,-260.190606099539,275.908110662149, , , , , , , , , , , , , , , , , , , , , , , , , , , , , , , , , , , , , , , , , , , , , , , , , , , , , , , , , , , , ,
-153.615292649058,205.431265532738,359.046558181796,181.036106574638,-37.110514053858,-97.4631466745974,-97.1399581319781,-48.7068140483705,-24.6392255652756,-25.9079864418397,-256.330925415427,282.238911857267, , , , , , , , , , , , , , , , , , , , , , , , , , , , , , , , , , , , , , , , , , , , , , , , , , , , , , , , , , , , ,
-145.186945228823,205.431265532738,350.61821076156,140.591332304289,-47.0109505970088,-96.3860106927915,-90.533061994648,-40.04069976794,-16.348115391314,-30.1221601519575,-247.902577995192,278.024738147149, , , , , , , , , , , , , , , , , , , , , , , , , , , , , , , , , , , , , , , , , , , , , , , , , , , , , , , , , , , , ,
-137.416039836764,205.431265532738,342.847305369502,104.270580053999,-60.5268450952149,-96.3860106927915,-85.1813195144407,-32.749314340254,-9.26366609780188,-34.0076128479867,-240.131672603133,274.13928545112, , , , , , , , , , , , , , , , , , , , , , , , , , , , , , , , , , , , , , , , , , , , , , , , , , , , , , , , , , , , ,
-131.078170194881,205.431265532738,336.509435727618,70.1830241887528,-73.4919673321323,-101.117502842332,-81.0094364035215,-26.6830468452518,-3.24419768555639,-37.1765476689285,-233.793802961249,270.970350630178, , , , , , , , , , , , , , , , , , , , , , , , , , , , , , , , , , , , , , , , , , , , , , , , , , , , , , , , , , , , ,
-125.550780279541,205.431265532738,330.982045812278,51.5238891762107,-86.1160071536417,-103.6830035155,-77.9230554155888,-21.6860563244257,1.85347573485365,-39.9402426265986,-228.266413045909,268.206655672508, , , , , , , , , , , , , , , , , , , , , , , , , , , , , , , , , , , , , , , , , , , , , , , , , , , , , , , , , , , , ,
-120.748142560178,205.431265532738,326.179408092916,34.4168198953154,-98.5442407809724,-110.516261075062,-75.8137536823012,-17.6009887615745,6.17149299647236,-42.3415614862798,-223.463775326547,265.805336812826, , , , , , , , , , , , , , , , , , , , , , , , , , , , , , , , , , , , , , , , , , , , , , , , , , , , , , , , , , , , ,
-117.121331290751,205.431265532738,322.552596823489,12.9176009737132,-110.863403524076,-118.282070337314,-74.5643539129523,-14.2735219657532,9.84872325456627,-44.1549671209932,-219.83696405712,263.991931178113, , , , , , , , , , , , , , , , , , , , , , , , , , , , , , , , , , , , , , , , , , , , , , , , , , , , , , , , , , , , ,
-113.476097946685,205.431265532738,318.907363479422,-4.11759178063618,-123.110125824923,-126.527070831962,-74.054223624101,-11.556616443638,13.0187188725879,-45.9775837930266,-216.191730713053,262.16931450608, , , , , , , , , , , , , , , , , , , , , , , , , , , , , , , , , , , , , , , , , , , , , , , , , , , , , , , , , , , , ,
-110.498042582421,205.431265532738,315.929308115159,-15.3724603357624,-135.280912104548,-134.173756798295,-74.1642757767001,-9.31434718892303,15.807713776207,-47.4666114751584,-213.21367534879,260.680286823948, , , , , , , , , , , , , , , , , , , , , , , , , , , , , , , , , , , , , , , , , , , , , , , , , , , , , , , , , , , , ,
-107.583840701442,205.431265532738,313.015106234179,-25.0406996095333,-147.342699866539,-144.824368624344,-74.7814186233575,-7.4251804899862,18.3325969927937,-48.923712415648,-210.299473467811,259.223185883458, , , , , , , , , , , , , , , , , , , , , , , , , , , , , , , , , , , , , , , , , , , , , , , , , , , , , , , , , , , , ,
-104.952076956085,205.431265532738,310.383342488822,-33.14385795361,-159.243157308495,-155.048127700741,-75.8022305712241,-5.78455824426903,20.698859453139,-50.2395942883264,-207.667709722454,257.90730401078, , , , , , , , , , , , , , , , , , , , , , , , , , , , , , , , , , , , , , , , , , , , , , , , , , , , , , , , , , , , ,
-102.363820137867,205.431265532738,307.795085670604,-39.7487509049816,-170.920054095422,-167.492117967579,-77.1356851065493,-4.30667880374387,22.9985659187223,-51.5337226974355,-205.079452904236,256.613175601671, , , , , , , , , , , , , , , , , , , , , , , , , , , , , , , , , , , , , , , , , , , , , , , , , , , , , , , , , , , , ,
-99.7897592385611,205.431265532738,305.221024771299,-44.9640395832416,-182.309254117876,-174.020669019051,-78.7048370530954,-2.92541351117695,25.3084471939735,-52.8207531470883,-202.50539200493,255.326145152018, , , , , , , , , , , , , , , , , , , , , , , , , , , , , , , , , , , , , , , , , , , , , , , , , , , , , , , , , , , , ,
-97.1744058275836,205.431265532738,302.605671360321,-50.1543043804645,-193.351094920564,-183.790134425658,-80.4474892611508,-1.59435342038871,27.688252753725,-54.128429852577,-199.890038593952,254.018468446529, , , , , , , , , , , , , , , , , , , , , , , , , , , , , , , , , , , , , , , , , , , , , , , , , , , , , , , , , , , , ,
-94.4713191621563,205.431265532738,299.902584694894,-59.1930047181277,-203.995093811827,-189.696639205322,-82.3159468982533,-0.286023363623436,30.1795487474035,-55.4799731852907,-197.186951928525,252.666925113816, , , , , , , , , , , , , , , , , , , , , , , , , , , , , , , , , , , , , , , , , , , , , , , , , , , , , , , , , , , , ,
-91.6557635029795,205.431265532738,297.087029035717,-61.1786340989856,-214.20303293294,-196.327973733714,-84.2760024317797,1.00967573220071,32.8051720232584,-56.8877510148791,-194.371396269348,251.259147284227, , , , , , , , , , , , , , , , , , , , , , , , , , , , , , , , , , , , , , , , , , , , , , , , , , , , , , , , , , , , ,
-88.7247644503481,205.431265532738,294.156029983086,-62.4860417258165,-223.950539805762,-201.695497123837,-86.3052930749916,2.28771589194837,35.5695291109948,-58.3532505411948,-191.440397216717,249.793647757911, , , , , , , , , , , , , , , , , , , , , , , , , , , , , , , , , , , , , , , , , , , , , , , , , , , , , , , , , , , , ,
-85.6956431843924,205.431265532738,291.12690871713,-63.2864897301028,-233.227333174972,-207.394671436146,-88.3911787971297,3.53076603161383,38.459843902458,-59.8678111741726,-188.411275950761,248.279087124934, , , , , , , , , , , , , , , , , , , , , , , , , , , , , , , , , , , , , , , , , , , , , , , , , , , , , , , , , , , , ,
-82.6032171617021,205.431265532738,288.03448269444,-63.7452596700602,-242.036365767464,-212.929905408922,-90.5283181796956,4.71242587446721,41.4483280955103,-61.4140241855178,-185.318849928071,246.732874113589, , , , , , , , , , , , , , , , , , , , , , , , , , , , , , , , , , , , , , , , , , , , , , , , , , , , , , , , , , , , ,
-79.4959982594265,205.431265532738,284.927263792164,-64.0151560435518,-250.392146978413,-217.326789707046,-92.7161398803555,5.80067357085607,44.4951208428336,-62.9676336366556,-182.211631025795,245.179264662451, , , , , , , , , , , , , , , , , , , , , , , , , , , , , , , , , , , , , , , , , , , , , , , , , , , , , , , , , , , , ,
-76.4317756727861,205.431265532738,281.863041205524,-64.2314836465587,-258.318540293627,-222.379629153979,-94.9563887423724,6.76133455551774,47.5517558912891,-64.4997449299758,-179.147408439155,243.647153369131, , , , , , , , , , , , , , , , , , , , , , , , , , , , , , , , , , , , , , , , , , , , , , , , , , , , , , , , , , , , ,
-73.4729531763331,205.431265532738,278.904218709071,-64.5086604832924,-265.846304948485,-227.098835356251,-97.3618028326411,7.56140298514463,50.5648716812625,-65.9791561782023,-176.188585942702,242.167742120904, , , , , , , , , , , , , , , , , , , , , , , , , , , , , , , , , , , , , , , , , , , , , , , , , , , , , , , , , , , , ,
-70.7610699637988,205.431265532738,276.192335496536,-64.9384430439783,-273.010616073882,-231.337767287376,-101.591651441504,8.17206231293829,53.47986948469,-67.3350977844695,-173.476702730168,240.811800514637, , , , , , , , , , , , , , , , , , , , , , , , , , , , , , , , , , , , , , , , , , , , , , , , , , , , , , , , , , , , ,
-68.1961853529011,205.431265532738,273.627450885639,-65.9517548333537,-279.84876008672,-235.113238239152,-104.293506787153,8.57124893117901,56.244239057392,-68.6175400899183,-170.91181811927,239.529358209188, , , , , , , , , , , , , , , , , , , , , , , , , , , , , , , , , , , , , , , , , , , , , , , , , , , , , , , , , , , , ,
-65.9079150482138,205.431265532738,271.339180580951,-72.9125264381782,-286.398141273965,-238.640507377827,-108.976140876346,8.7456035852694,58.8103168063813,-69.7616752422619,-168.623547814583,238.385223056844, , , , , , , , , , , , , , , , , , , , , , , , , , , , , , , , , , , , , , , , , , , , , , , , , , , , , , , , , , , , ,
-63.9362726049697,205.431265532738,269.367538137707,-73.7933712358635,-292.694643604602,-241.833212999631,-112.196336212058,8.69169018677137,61.1373259422089,-70.747496463884,-166.651905371339,237.399401835222, , , , , , , , , , , , , , , , , , , , , , , , , , , , , , , , , , , , , , , , , , , , , , , , , , , , , , , , , , , , ,
-62.3089353261466,205.431265532738,267.740200858884,-74.9299109640847,-298.771303063816,-246.636391446904,-114.682040341391,7.75229466892613,63.1926616817507,-71.5611651032956,-165.024568092515,236.585733195811, , , , , , , , , , , , , , , , , , , , , , , , , , , , , , , , , , , , , , , , , , , , , , , , , , , , , , , , , , , , ,
-61.0402773139095,205.431265532738,266.471542846647,-76.3191538606687,-304.657203533887,-251.650868253049,-117.499143200459,5.30892535248307,64.9524987713221,-72.1954941094141,-163.755910080278,235.951404189692, , , , , , , , , , , , , , , , , , , , , , , , , , , , , , , , , , , , , , , , , , , , , , , , , , , , , , , , , , , , ,
-60.13109889192,205.431265532738,265.562364424658,-77.9444662018955,-310.376516578346,-254.7648997565,-120.25667854208,1.56880675472797,66.4018836437688,-72.6500833204089,-162.846731658289,235.496814978697, , , , , , , , , , , , , , , , , , , , , , , , , , , , , , , , , , , , , , , , , , , , , , , , , , , , , , , , , , , , ,
-59.5688050296063,205.431265532738,265.000070562344,-79.7774135626454,-315.947635722377,-257.872929214623,-122.642063395342,0.572829459272888,67.5345100869536,-72.9312302515657,-162.284437795975,235.215668047541, , , , , , , , , , , , , , , , , , , , , , , , , , , , , , , , , , , , , , , , , , , , , , , , , , , , , , , , , , , , ,
-59.3278074393897,205.431265532738,264.759072972127,-81.78003484006,-321.382400937414,-262.865312141977,-125.723769493002,-0.444938729012002,68.3523572991999,-73.051729046674,-162.043440205759,235.095169252432, , , , , , , , , , , , , , , , , , , , , , , , , , , , , , , , , , , , , , , , , , , , , , , , , , , , , , , , , , , , ,
-59.3700520004103,205.431265532738,264.801317533148,-83.9076148996988,-326.685481296258,-266.10462499415,-127.913442292749,-1.45291187526534,68.8652998020621,-73.0306067661637,-162.085684766779,235.116291532943, , , , , , , , , , , , , , , , , , , , , , , , , , , , , , , , , , , , , , , , , , , , , , , , , , , , , , , , , , , , ,
-59.6457538660818,205.431265532738,265.077019398819,-86.1118166347933,-331.854069876227,-269.662421477084,-129.980630224851,-2.43491853112648,69.0907071352894,-72.8927558333279,-162.361386632451,235.254142465778, , , , , , , , , , , , , , , , , , , , , , , , , , , , , , , , , , , , , , , , , , , , , , , , , , , , , , , , , , , , ,
-60.0945644387187,205.431265532738,265.525829971456,-89.2119789818969,-336.878092835673,-272.851414013002,-131.86192785865,-3.65672886279555,69.0529759739179,-72.6683505470095,-162.810197205088,235.478547752097, , , , , , , , , , , , , , , , , , , , , , , , , , , , , , , , , , , , , , , , , , , , , , , , , , , , , , , , , , , , ,
-60.6474180030211,205.431265532738,266.078683535759,-94.0645987421432,-341.741097903465,-276.087479459786,-134.365640488897,-4.53432660589494,68.7829063431593,-72.3919237648583,-163.36305076939,235.754974534248, , , , , , , , , , , , , , , , , , , , , , , , , , , , , , , , , , , , , , , , , , , , , , , , , , , , , , , , , , , , ,
-61.2291971544582,205.431265532738,266.660462687196,-98.4661236609248,-346.421868479369,-279.605135334296,-136.706609338624,-5.64143776527414,68.3168491783624,-72.1010341891398,-163.944829920827,236.045864109967, , , , , , , , , , , , , , , , , , , , , , , , , , , , , , , , , , , , , , , , , , , , , , , , , , , , , , , , , , , , ,
-61.7621767910644,205.431265532738,267.193442323802,-102.411598536317,-350.896653762701,-283.677656465752,-137.984418351246,-6.33435288165339,67.6955944644901,-71.8345443708366,-164.477809557433,236.31235392827, , , , , , , , , , , , , , , , , , , , , , , , , , , , , , , , , , , , , , , , , , , , , , , , , , , , , , , , , , , , ,
-62.1700476179908,205.431265532738,267.601313150728,-105.905802036397,-355.14177375581,-287.114294985641,-139.370070668277,-7.85387646327792,66.963010590619,-71.6306089573734,-164.88568038436,236.516289341733, , , , , , , , , , , , , , , , , , , , , , , , , , , , , , , , , , , , , , , , , , , , , , , , , , , , , , , , , , , , ,
-62.3822374257291,205.431265532738,267.813502958467,-108.962132547385,-359.136304687904,-291.432707059803,-140.318791631465,-8.2599004287302,66.1644667853445,-71.5245140535043,-165.097870192098,236.622384245602, , , , , , , , , , , , , , , , , , , , , , , , , , , , , , , , , , , , , , , , , , , , , , , , , , , , , , , , , , , , ,
-62.3382375777467,205.431265532738,267.769503110484,-111.601232031987,-362.86459368338,-295.905375081553,-141.604409493034,-8.72365621463798,65.3450703302274,-71.5465139774955,-165.053870344116,236.600384321611, , , , , , , , , , , , , , , , , , , , , , , , , , , , , , , , , , , , , , , , , , , , , , , , , , , , , , , , , , , , ,
-61.9916659535784,205.431265532738,267.422931486316,-113.849557049178,-366.318447291909,-300.076699091707,-143.359348959438,-9.86216967249886,64.5477491121746,-71.7197997895796,-164.707298719947,236.427098509527, , , , , , , , , , , , , , , , , , , , , , , , , , , , , , , , , , , , , , , , , , , , , , , , , , , , , , , , , , , , ,
-61.7382005233531,205.431265532738,267.169466056091,-115.738077273809,-369.498906049863,-302.71874542301,-143.664192889629,-12.7751158695983,63.811234187805,-71.8465325046923,-164.453833289722,236.300365794414, , , , , , , , , , , , , , , , , , , , , , , , , , , , , , , , , , , , , , , , , , , , , , , , , , , , , , , , , , , , ,
-61.1221043023743,205.431265532738,266.553369835112,-117.301204276755,-372.41751288657,-306.495109825816,-143.615295224661,-12.6161547690925,63.1680533325305,-72.1545806151817,-163.837737068743,235.992317683925, , , , , , , , , , , , , , , , , , , , , , , , , , , , , , , , , , , , , , , , , , , , , , , , , , , , , , , , , , , , ,
-59.7791150522881,206.511639807495,266.290754859783,-118.57595827056,-375.096939182262,-309.966041792609,-143.475989534434,-11.9319683111099,62.6427164759837,-73.3662623776035,-163.034934956036,236.401197333639, , , , , , , , , , , , , , , , , , , , , , , , , , , , , , , , , , , , , , , , , , , , , , , , , , , , , , , , , , , , ,
-58.1469204606421,209.665283401474,267.812203862116,-119.601315206635,-377.570817384108,-312.61289663537,-143.116010557874,-11.116796206854,62.250326439106,-75.7591814704157,-162.979562161379,238.738743631794, , , , , , , , , , , , , , , , , , , , , , , , , , , , , , , , , , , , , , , , , , , , , , , , , , , , , , , , , , , , ,
-56.283158270531,212.501660623667,268.784818894198,-120.417654209443,-379.882685220664,-314.694953020784,-142.659145782037,-10.2053480540995,61.9958509878816,-78.109251176568,-162.533988582364,240.643239758932, , , , , , , , , , , , , , , , , , , , , , , , , , , , , , , , , , , , , , , , , , , , , , , , , , , , , , , , , , , , ,
-54.2638011269177,215.068383394696,269.332184521613,-121.066231878827,-382.084062323164,-316.700323151642,-142.15438167288,-9.23654639434159,61.8742226624538,-80.4022911338889,-161.797992824265,242.200283958154, , , , , , , , , , , , , , , , , , , , , , , , , , , , , , , , , , , , , , , , , , , , , , , , , , , , , , , , , , , , ,
-52.1788193984008,217.149244583558,269.328063981959,-121.588635902917,-384.231805418228,-318.6670778458,-141.656013317853,-8.25153533657437,61.8713001567205,-82.4852125925787,-160.75344169018,243.238654282758, , , , , , , , , , , , , , , , , , , , , , , , , , , , , , , , , , , , , , , , , , , , , , , , , , , , , , , , , , , , ,
-50.1267504402706,218.669030775857,268.795781216127,-122.026206974714,-386.384973262366,-320.638020762046,-141.221068128458,-7.29146214563941,61.9655748467817,-84.2711401677931,-159.461265828199,243.732405995992, , , , , , , , , , , , , , , , , , , , , , , , , , , , , , , , , , , , , , , , , , , , , , , , , , , , , , , , , , , , ,
-48.2086127952859,220.008119814024,268.21673260931,-122.419441860984,-388.601463164591,-322.657519000333,-140.906264937704,-6.02993133399725,62.1303916661166,-85.8997535093691,-158.212672702298,244.112426211667, , , , , , , , , , , , , , , , , , , , , , , , , , , , , , , , , , , , , , , , , , , , , , , , , , , , , , , , , , , , ,
-46.5216482150421,220.611220055584,267.132868270626,-122.807382357201,-390.934676293324,-324.768125358687,-140.764816229984,-5.15015829773967,62.3364039135311,-87.0447859202708,-156.827258242834,243.872044163105, , , , , , , , , , , , , , , , , , , , , , , , , , , , , , , , , , , , , , , , , , , , , , , , , , , , , , , , , , , , ,
-45.1533851305126,220.110776945641,265.264162076153,-123.226967190369,-393.430448135895,-327.00734469705,-140.843395145148,-3.02699776407514,62.5539962672167,-87.4786959075642,-155.208773603333,242.687469510897, , , , , , , , , , , , , , , , , , , , , , , , , , , , , , , , , , , , , , , , , , , , , , , , , , , , , , , , , , , , ,
-44.1764762692055,219.69029719456,263.866773463765,-123.712312051433,-396.124449499535,-329.404856258646,-141.17957086445,-1.34961198528533,62.7554671715379,-87.7569104626773,-154.021624866485,241.778535329163, , , , , , , , , , , , , , , , , , , , , , , , , , , , , , , , , , , , , , , , , , , , , , , , , , , , , , , , , , , , ,
-43.6446676966294,218.178871291455,261.823538988084,-124.293909731087,-399.040227171228,-331.980438400233,-141.799966605576,-0.43314766239957,62.9168287288849,-87.2671017974129,-152.734103342357,240.00120513977, , , , , , , , , , , , , , , , , , , , , , , , , , , , , , , , , , , , , , , , , , , , , , , , , , , , , , , , , , , , ,
-43.5901349495426,216.234126976923,259.824261926466,-124.997794362543,-402.1880167205,-334.742761514313,-142.719311083147,0.0843098532922606,63.0191390637419,-86.3219960136903,-151.707198438004,238.029194451694, , , , , , , , , , , , , , , , , , , , , , , , , , , , , , , , , , , , , , , , , , , , , , , , , , , , , , , , , , , , ,
-44.0222978773505,214.530667006428,258.552964883778,-125.844753977778,-405.564418323388,-337.689120092263,-143.940437574287,0.776503091672047,63.0493325006787,-85.2541845645387,-151.287631380564,236.541815945103, , , , , , , , , , , , , , , , , , , , , , , , , , , , , , , , , , , , , , , , , , , , , , , , , , , , , , , , , , , , ,
-44.9280977285667,212.052954962094,256.98105269066,-126.849682429254,-409.152970779014,-341.332738773569,-145.854977820087,0.870030692773461,63.000564935461,-83.5624286167634,-150.954575209613,234.517003826377, , , , , , , , , , , , , , , , , , , , , , , , , , , , , , , , , , , , , , , , , , , , , , , , , , , , , , , , , , , , ,
-46.2735913781035,210.004490289013,256.278081667116,-128.021147833634,-412.925589831351,-345.417498237265,-148.131791112917,0.807051319957672,62.8721347774199,-81.8654494554546,-151.27583652261,233.141285978064, , , , , , , , , , , , , , , , , , , , , , , , , , , , , , , , , , , , , , , , , , , , , , , , , , , , , , , , , , , , ,
-48.0066235152181,207.36969735556,255.376320870778,-129.361243865381,-416.844768963931,-349.040238880708,-150.176639645625,0.463229883500098,62.6690522433607,-79.681536920171,-151.691472192998,231.373009113169, , , , , , , , , , , , , , , , , , , , , , , , , , , , , , , , , , , , , , , , , , , , , , , , , , , , , , , , , , , , ,
-50.1522666083562,205.431265532738,255.583532141094,-130.865789268332,-420.866391955675,-352.933819171709,-152.437919779993,-0.158375730404551,62.4013067828632,-77.6394994621907,-152.867899374725,230.507398836916, , , , , , , , , , , , , , , , , , , , , , , , , , , , , , , , , , , , , , , , , , , , , , , , , , , , , , , , , , , , ,
-52.7740857278182,203.263705463288,256.037791191106,-132.524934562783,-424.942980342403,-356.983014418977,-155.78680791044,-0.902529256584395,62.0828476032032,-75.2448098677348,-154.405938459462,229.650748327197, , , , , , , , , , , , , , , , , , , , , , , , , , , , , , , , , , , , , , , , , , , , , , , , , , , , , , , , , , , , ,
-55.3158112437197,201.307180627852,256.622991871571,-134.324198777638,-429.027177502212,-360.938946695389,-158.868857515007,-1.75250304858157,61.7302789796474,-72.9956846920659,-155.969401557645,228.965086249711, , , , , , , , , , , , , , , , , , , , , , , , , , , , , , , , , , , , , , , , , , , , , , , , , , , , , , , , , , , , ,
-57.8453875545957,199.676567312042,257.521954866637,-136.245885567592,-433.07523492137,-364.801232924952,-161.580269632761,-2.69116238304793,61.3612943514461,-70.9155898787231,-157.683671210617,228.599261089339, , , , , , , , , , , , , , , , , , , , , , , , , , , , , , , , , , , , , , , , , , , , , , , , , , , , , , , , , , , , ,
-60.3653674990331,198.833914124191,259.199281623224,-138.270744873167,-437.050222670204,-368.577294215378,-164.504876011622,-3.70153175066077,60.9929172059071,-69.2342733125788,-159.782324561128,229.016597873707, , , , , , , , , , , , , , , , , , , , , , , , , , , , , , , , , , , , , , , , , , , , , , , , , , , , , , , , , , , , ,
-62.7990964816589,198.172769911849,260.971866393507,-140.379695094057,-440.924669339666,-372.280962727892,-168.684768968004,-4.76738420906515,60.6396573597333,-67.6868367150948,-161.885481437583,229.572318152678, , , , , , , , , , , , , , , , , , , , , , , , , , , , , , , , , , , , , , , , , , , , , , , , , , , , , , , , , , , , ,
-65.0796966205952,197.93668807756,263.016384698155,-142.555416164219,-444.682378908277,-375.93019446334,-172.150381253206,-5.87387257966368,60.3117143479635,-66.4284957284824,-164.048040659375,230.476536387858, , , , , , , , , , , , , , , , , , , , , , , , , , , , , , , , , , , , , , , , , , , , , , , , , , , , , , , , , , , , ,
-67.152908554727,197.455748837781,264.608657392508,-144.783648818042,-448.319273391655,-379.54410136509,-175.315770194437,-7.0081824046643,60.0133709598144,-65.1514201415269,-165.880782973617,231.032203115144, , , , , , , , , , , , , , , , , , , , , , , , , , , , , , , , , , , , , , , , , , , , , , , , , , , , , , , , , , , , ,
-68.9787207524453,197.173202285744,266.151923038189,-147.05407315026,-451.843232553282,-383.139520060763,-178.136218573915,-7.87370723231636,59.741733885111,-64.0972407666494,-167.565321895317,231.662562661967, , , , , , , , , , , , , , , , , , , , , , , , , , , , , , , , , , , , , , , , , , , , , , , , , , , , , , , , , , , , ,
-70.5320578724374,197.683513565332,268.215571437769,-149.360686408577,-455.272997872778,-386.133267447684,-181.283815218857,-8.65748212714477,59.4859958772847,-63.5757278464472,-169.373814655103,232.94954250155, , , , , , , , , , , , , , , , , , , , , , , , , , , , , , , , , , , , , , , , , , , , , , , , , , , , , , , , , , , , ,
-71.8021983358708,197.447782173985,269.249980509855,-151.701648367759,-458.636258361886,-389.077356339134,-184.001130276789,-9.44278806695326,59.2273928737475,-62.8227919190569,-170.526089422863,233.34888134192, , , , , , , , , , , , , , , , , , , , , , , , , , , , , , , , , , , , , , , , , , , , , , , , , , , , , , , , , , , , ,
-72.7909456248008,198.137581115389,270.928526740189,-154.078605584537,-461.96705930286,-392.00324004161,-186.660495941343,-10.181486613288,58.9399826514471,-62.6733177452939,-171.859736182495,234.533053927789, , , , , , , , , , , , , , , , , , , , , , , , , , , , , , , , , , , , , , , , , , , , , , , , , , , , , , , , , , , , ,
-73.5931605181055,198.164647350378,271.757807868483,-156.495557085501,-465.302705822705,-394.945998338947,-189.239812534417,-11.2093018308861,58.5922753399632,-62.285743416136,-172.675484193294,234.96122760943, , , , , , , , , , , , , , , , , , , , , , , , , , , , , , , , , , , , , , , , , , , , , , , , , , , , , , , , , , , , ,
-74.0598580481965,198.352792493913,272.412650542109,-158.957401545003,-468.680387878886,-397.941178821932,-191.744526150037,-12.1280210814462,58.1496302344733,-62.1464672228581,-173.236254295153,235.382721518011, , , , , , , , , , , , , , , , , , , , , , , , , , , , , , , , , , , , , , , , , , , , , , , , , , , , , , , , , , , , ,
-74.5473700016819,198.087203414178,272.634573415859,-161.468389940085,-472.133808847536,-401.021549138848,-194.17314957571,-13.2221319329372,57.5772358914539,-61.7699167062478,-173.590971708771,235.360888415018, , , , , , , , , , , , , , , , , , , , , , , , , , , , , , , , , , , , , , , , , , , , , , , , , , , , , , , , , , , , ,
-74.9688035074131,198.398025880212,273.366829387625,-164.030742315777,-475.690111746655,-403.687053755933,-196.524713276427,-13.7763796462794,56.8805026921345,-61.7146111863994,-174.167816447519,235.882427633918, , , , , , , , , , , , , , , , , , , , , , , , , , , , , , , , , , , , , , , , , , , , , , , , , , , , , , , , , , , , ,
-75.1219997953133,198.674075279313,273.796075074626,-166.643638246108,-479.367346562981,-406.555766113613,-198.797852625789,-14.1848434034599,55.9601257226561,-61.7760377419995,-174.45903743497,236.235075176969, , , , , , , , , , , , , , , , , , , , , , , , , , , , , , , , , , , , , , , , , , , , , , , , , , , , , , , , , , , , ,
-74.9258592658546,197.986322957426,272.91218222328,-169.302686094091,-483.172637860378,-409.625328982526,-200.989990656651,-14.4211723198799,55.0160730318883,-61.5302318457855,-173.919020744567,235.449252590353, , , , , , , , , , , , , , , , , , , , , , , , , , , , , , , , , , , , , , , , , , , , , , , , , , , , , , , , , , , , ,
-75.1848550394457,198.589168870522,273.774023909967,-171.999878590019,-487.101136398857,-412.869067632011,-203.096727410489,-14.7317897348092,54.7148300717663,-61.7021569155379,-174.479439474706,236.181596390244, , , , , , , , , , , , , , , , , , , , , , , , , , , , , , , , , , , , , , , , , , , , , , , , , , , , , , , , , , , , ,
-74.5204298164114,198.725578288768,273.246008105179,-174.723988120154,-491.135788552537,-416.324296528124,-205.111555679454,-15.6260348429103,53.1917179528091,-62.1025742361783,-173.883218960795,235.985793196973, , , , , , , , , , , , , , , , , , , , , , , , , , , , , , , , , , , , , , , , , , , , , , , , , , , , , , , , , , , , ,
-73.7107623841876,198.908115318772,272.618877702959,-177.461334906801,-495.247923330845,-420.046635500704,-207.025974835706,-15.3915472514048,51.5413067181783,-62.598676467292,-173.164820043573,235.763496510865, , , , , , , , , , , , , , , , , , , , , , , , , , , , , , , , , , , , , , , , , , , , , , , , , , , , , , , , , , , , ,
-72.9142725376449,199.880661165409,272.794933703054,-180.196847335744,-499.398625494664,-423.536519194631,-208.82998750868,-16.064728291935,49.7157492332528,-63.4831943138822,-172.85460312035,236.337797434231, , , , , , , , , , , , , , , , , , , , , , , , , , , , , , , , , , , , , , , , , , , , , , , , , , , , , , , , , , , , ,
-71.8871768161388,200.465376537253,272.352553353391,-182.915313205355,-503.540832120676,-426.973101035312,-210.512880549843,-16.3095983274573,47.8082393252937,-64.2890998605569,-172.119865084765,236.408964945322, , , , , , , , , , , , , , , , , , , , , , , , , , , , , , , , , , , , , , , , , , , , , , , , , , , , , , , , , , , , ,
-70.7212715944025,201.971723833682,272.692995428084,-185.602698868459,-507.622062811789,-430.274371904089,-212.064150158846,-17.0722327534562,45.8778783050875,-65.6252261196397,-171.707133511243,237.332359630883, , , , , , , , , , , , , , , , , , , , , , , , , , , , , , , , , , , , , , , , , , , , , , , , , , , , , , , , , , , , ,
-69.8228862058219,203.601811946647,273.424698152469,-188.247395688318,-511.587664916973,-434.031750876864,-213.4744410985,-17.6580321111508,43.9888995121239,-66.8894628704124,-171.623792179145,238.513255049558, , , , , , , , , , , , , , , , , , , , , , , , , , , , , , , , , , , , , , , , , , , , , , , , , , , , , , , , , , , , ,
-68.8596677916511,205.431265532738,274.290933324389,-190.841242755246,-515.384412035199,-437.659400083415,-214.736412036023,-18.0397721235457,42.2064120325249,-68.2857988705433,-171.57530055802,239.861099428563, , , , , , , , , , , , , , , , , , , , , , , , , , , , , , , , , , , , , , , , , , , , , , , , , , , , , , , , , , , , ,
-67.7372225311481,205.431265532738,273.168488063886,-193.380184582855,-518.96424053064,-441.115998760923,-215.845489404332,-18.1955859711919,40.5917801443482,-68.8470215007948,-170.452855297517,239.299876798311, , , , , , , , , , , , , , , , , , , , , , , , , , , , , , , , , , , , , , , , , , , , , , , , , , , , , , , , , , , , ,
-66.9954432646814,206.081232896716,273.076676161397,-195.864467270774,-522.287866259824,-444.367953524687,-217.362463547242,-18.1109638954502,39.1979699001065,-69.5428948160172,-170.036059713039,239.578954529056, , , , , , , , , , , , , , , , , , , , , , , , , , , , , , , , , , , , , , , , , , , , , , , , , , , , , , , , , , , , ,
-65.8078636198085,208.442341206543,274.250204826351,-198.298346009607,-525.328006426187,-447.391569779156,-218.762035304269,-17.7805412825188,38.0652130358467,-71.3172387933672,-170.02903422308,241.346273016447, , , , , , , , , , , , , , , , , , , , , , , , , , , , , , , , , , , , , , , , , , , , , , , , , , , , , , , , , , , , ,
-64.7465332431114,210.881572088118,275.62810533123,-200.689343115357,-528.07193988203,-450.174638274834,-220.568862684048,-17.2095762177658,37.9474952984469,-73.0675194225034,-170.187319287171,243.254838709674, , , , , , , , , , , , , , , , , , , , , , , , , , , , , , , , , , , , , , , , , , , , , , , , , , , , , , , , , , , , ,
-63.9042428131218,212.888575517764,276.792818330886,-203.047151748878,-530.523173766622,-452.717345698225,-221.58906872423,-16.4149987767031,37.5821738897469,-74.4921663523211,-170.348530572004,244.840696924325, , , , , , , , , , , , , , , , , , , , , , , , , , , , , , , , , , , , , , , , , , , , , , , , , , , , , , , , , , , , ,
-63.2399990015463,214.764139934494,278.00413893604,-205.382338166821,-532.702043063611,-455.032443186706,-222.003363728192,-15.4259067120082,37.5647872143441,-75.7620704664736,-170.622068968793,246.384139435266, , , , , , , , , , , , , , , , , , , , , , , , , , , , , , , , , , , , , , , , , , , , , , , , , , , , , , , , , , , , ,
-62.840215252258,216.28232259698,279.122537849238,-207.705044002027,-534.645138075218,-457.144646783147,-222.414702853819,-14.283393570049,37.7744405863909,-76.7210536723609,-170.981376550748,247.702430223109, , , , , , , , , , , , , , , , , , , , , , , , , , , , , , , , , , , , , , , , , , , , , , , , , , , , , , , , , , , , ,
-62.7689034868104,216.655694173197,279.424597660007,-210.023893774296,-536.403522226635,-459.08928984058,-222.875939678763,-13.0396196988639,38.6160283786817,-76.943395343193,-171.096750573409,248.040145916601, , , , , , , , , , , , , , , , , , , , , , , , , , , , , , , , , , , , , , , , , , , , , , , , , , , , , , , , , , , , ,
