-8.56944975670883,-42.8920469882112,-34.3225972315023,7.9792911225314,-114.306619468329,-124.128236300506,-142.107767561187,-113.162381784855,-78.4669846889939,25.7307483724601,12.8765737373968,-38.6073221098566,788,806,830,815,806,830,788,806,830,788,806,830,916,1015,1032,1041,1039,1048,1016,1081,1053,916,911,1016,1080,1157,1138,1170,1151,1168,1160,1161,1156,1168,1084,1141,1504,1518,1400,1395,1349,1367,1367,1408,1401,1489,1478,1407,1183,1197,1221,1206,1197,1221,1183,1197,1221,1183,1197,1221,
-8.56944975670883,-42.8920469882112,-34.3225972315023,7.9792911225314,-114.306619468329,-124.128236300506,-142.107767561187,-113.162381784855,-78.4669846889939,25.7307483724601,12.8765737373968,-38.6073221098566,1632,1673,1700,1682,1673,1700,1632,1673,1700,1632,1673,1700,987,1067,1073,1061,1056,1074,1058,1091,1090,1088,968,1072,1210,1174,1200,1190,1170,1187,1167,1185,1186,1182,1205,1172,1620,1519,1463,1478,1437,1455,1447,1458,1458,1511,1594,1460,2000,2069,2100,2077,2069,2100,2000,2069,2100,2000,2069,2100,
-8.56944975670883,-42.8920469882112,-34.3225972315023,7.9792911225314,-114.306619468329,-124.128236300506,-142.107767561187,-113.162381784855,-78.4669846889939,25.7307483724601,12.8765737373968,-38.6073221098566,2459,2528,2556,2536,2528,2556,2459,2528,2556,2459,2528,2556,1038,1081,1121,1105,1097,1115,1115,1115,1115,1111,985,1115,1237,1213,1220,1210,1196,1215,1214,1214,1214,1212,1235,1215,2138,1520,1505,1559,1495,1511,1494,1488,1492,1563,1618,1496,2838,2908,2931,2915,2908,2931,2838,2908,2931,2838,2908,2931,
-8.56944975670883,-42.8920469882112,-34.3225972315023,7.9792911225314,-114.306619468329,-124.128236300506,-142.107767561187,-113.162381784855,-78.4669846889939,25.7307483724601,12.8765737373968,-38.6073221098566,3334,3374,3396,3382,3374,3396,3334,3374,3396,3334,3374,3396,1068,1114,1913,1125,1926,1922,1923,1820,1939,1696,1074,1911,1352,1242,1249,1233,1234,1251,1238,1239,1239,1266,1353,1245,2200,2243,2278,2202,2216,2201,2234,2233,2243,2315,2371,2235,3802,3759,3782,3768,3759,3782,3802,3759,3782,3802,3759,3782,
-8.56944975670883,-42.8920469882112,-34.3225972315023,7.9792911225314,-114.306619468329,-124.128236300506,-142.107767561187,-113.162381784855,-78.4669846889939,25.7307483724601,12.8765737373968,-38.6073221098566,4250,4238,4262,4248,4238,4262,4250,4238,4262,4250,4238,4262,1881,1922,1944,1851,1930,1932,1934,1900,1971,1834,1892,1946,1962,1350,1269,1247,1277,1298,1284,1276,1282,1977,2086,1349,2286,2319,2335,2262,2310,2311,2319,2305,2327,2402,2441,2330,4618,4638,4662,4648,4638,4662,4618,4638,4662,4618,4638,4662,
-8.56944975670883,-42.8920469882112,-34.3225972315023,7.9792911225314,-114.306619468329,-124.128236300506,-142.107767561187,-113.162381784855,-78.4669846889939,25.7307483724601,12.8765737373968,-38.6073221098566,5090,5124,5152,5134,5124,5152,5090,5124,5152,5090,5124,5152,1893,1957,1991,1887,1964,1981,2014,2656,2023,1860,2025,1983,1987,2026,2008,1930,2020,2022,2031,2017,2040,1999,2158,2009,3057,2371,2378,2334,2371,2376,2377,2363,2384,3066,3176,2375,5481,5530,5561,5539,5530,5561,5481,5530,5561,5481,5530,5561,
-8.56944975670883,-42.8920469882112,-34.3225972315023,7.9792911225314,-114.306619468329,-124.128236300506,-142.107767561187,-113.162381784855,-78.4669846889939,25.7307483724601,12.8765737373968,-38.6073221098566,5950,5987,6016,6017,5987,6016,5950,5987,6016,5950,5987,6016,1918,1991,2783,1918,2592,2748,2738,2675,2716,1923,2055,2784,2012,2043,2071,1992,2068,2071,2048,2039,2067,2083,2187,2043,3141,3057,3099,2934,3071,3067,3057,3089,3067,3147,3177,3058,6339,6364,6391,6372,6364,6391,6339,6364,6391,6339,6364,6391,
-8.56944975670883,-42.8920469882112,-34.3225972315023,7.9792911225314,-114.306619468329,-124.128236300506,-125.18546065473,-113.162381784855,-78.4669846889939,25.7307483724601,12.8765737373968,-38.6073221098566,6824,6816,6840,6864,6816,6840,6824,6816,6840,6824,6816,6840,2642,2785,2797,2744,2674,2781,2800,2723,2800,2460,2726,2798,2038,2085,2099,2015,2108,2108,2086,2068,2095,2110,2204,2086,3216,3153,3173,3173,3147,3157,3152,3157,3152,3230,3203,3164,7230,7187,7209,7195,7187,7209,7230,7187,7209,7230,7187,7209,
-8.56944975670883,-42.8920469882112,-34.3225972315023,33.5301764725026,-101.351402245015,-80.2685856415295,-107.051648653933,-164.849879283106,-76.5294353358175,25.7307483724601,12.8765737373968,-38.6073221098566,7717,7658,7682,7668,7658,7682,7717,7658,7682,7717,7658,7682,2677,2800,2816,2768,2755,2815,2837,3502,2847,2520,2731,2838,2063,2114,2122,2037,2134,2142,2110,2093,2120,2154,2820,2118,3981,3225,3227,3253,3213,3224,3213,3212,3216,3941,4043,3226,8027,8050,8076,8060,8050,8076,8027,8050,8076,8027,8050,8076,
-8.56944975670883,-42.8920469882112,-34.3225972315023,61.9558488063275,-90.8333247857275,-46.8416018528461,-96.4466168520362,-254.355966852517,-60.3167065325477,25.7307483724601,12.8765737373968,-38.6073221098566,8468,8516,8531,8525,8516,8531,8468,8516,8531,8468,8516,8531,2709,2837,3599,2805,3630,3588,3526,3651,3641,2558,2805,3598,2839,2141,2139,2097,2857,2870,2154,2134,2163,2811,2914,2170,4019,3977,3974,3735,3917,3907,3854,3963,3963,4020,4124,3975,8829,8902,8927,8910,8902,8927,8829,8902,8927,8829,8902,8927,
-8.56944975670883,-42.8920469882112,-34.3225972315023,80.9156408482496,-84.0277644314173,-23.9524189858863,-88.2729340241661,-312.860827336543,-49.208122388817,25.7307483724601,12.8765737373968,-38.6073221098566,9355,9496,9465,9504,9496,9465,9355,9496,9465,9355,9496,9465,3511,3600,3637,3517,3643,3621,3566,3697,3653,3537,3391,3639,2920,2863,2853,2826,2857,2921,2871,2873,2868,2837,2945,2861,4035,4023,4027,3739,3998,4000,3950,4018,4019,4105,4189,4022, , , , , , , , , , , , ,
-8.56944975670883,-42.8920469882112,-34.3225972315023,91.5713587237009,-80.0616944169645,-12.6866077344926,-81.4334005712364,-344.331079692819,-45.7050583481509,25.7307483724601,12.8765737373968,-38.6073221098566, , , , , , , , , , , , ,3525,3650,3687,3550,3697,3655,3593,4462,3687,3565,3524,3683,2948,2924,2882,2901,2907,2957,2887,2895,2896,2923,3007,2880,4838,4056,4068,3810,4059,4061,4003,4057,4055,4683,4833,4059, , , , , , , , , , , , ,
-8.56944975670883,-42.8920469882112,-34.3225972315023,96.786275676572,-79.2811876222395,-11.0335208117552,-78.2910481153181,-359.322290462605,-40.9610262817575,25.7307483724601,12.8765737373968,-38.6073221098566, , , , , , , , , , , , ,3683,3683,4478,3593,4462,4294,4282,4532,4390,3625,3649,4495,3003,2955,2930,2923,2948,2994,2925,2925,2924,2937,3699,2926,4897,4820,4837,4825,4781,4805,4793,4823,4830,4904,4947,4838, , , , , , , , , , , , ,
-8.56944975670883,-42.8920469882112,-34.3225972315023,99.4658046229491,-80.6037042351277,-15.097989054799,-78.1583390237557,-348.601498835681,-43.6264698047965,25.7307483724601,12.8765737373968,-38.6073221098566, , , , , , , , , , , , ,4341,4302,4514,4506,4500,4378,4320,4561,4463,4282,4450,4512,3713,2999,2959,2934,2976,3715,2950,2949,2949,3669,3747,2957,4921,4883,4901,4900,4879,4881,4893,4900,4898,4989,5061,4902, , , , , , , , , , , , ,
-8.56944975670883,-42.8920469882112,-34.3225972315023,91.7347458508649,-83.4375546918155,-15.8933739718616,-80.3355986947787,-324.748494980423,-47.9856897559621,25.7307483724601,12.8765737373968,-38.6073221098566, , , , , , , , , , , , ,4369,4358,4553,4527,4529,4425,4413,5379,4521,4378,4518,4549,3746,3703,2969,3625,3714,3735,2995,2986,2993,3743,3767,2995,5733,4922,4969,4989,4939,4940,4940,4942,4941,5569,5700,4954, , , , , , , , , , , , ,
-8.56944975670883,-42.8920469882112,-34.3225972315023,80.3684064284012,-85.2667703688375,-30.8639846491347,-84.1532075608968,-290.217619552614,-53.3698766759212,25.7307483724601,12.8765737373968,-38.6073221098566, , , , , , , , , , , , ,4413,4389,5359,4573,5374,5379,5386,5395,5374,4413,4581,5366,3772,3739,3703,3638,3733,3761,3665,3724,3718,3774,3797,3699,5796,5735,5739,5568,5667,5695,5702,5718,5722,5570,5753,5736, , , , , , , , , , , , ,
-8.56944975670883,-42.8920469882112,-34.3225972315023,66.9897749882378,-89.6432167885541,-48.0320976602018,-89.0046592916733,-249.73983299266,-59.720974229534,25.7307483724601,12.8765737373968,-38.6073221098566, , , , , , , , , , , , ,5175,5362,5403,5346,5391,5392,5394,5479,5423,5346,5172,5402,3799,3777,3761,3694,3758,3798,3680,3747,3748,3801,3921,3735,5861,5796,5796,5776,5770,5774,5785,5794,5793,5717,5888,5796, , , , , , , , , , , , ,
-8.56944975670883,-42.8920469882112,-34.3225972315023,53.2707359429529,-94.7499961437886,-65.9780228657972,-94.3696365118694,-208.314612947133,-65.9992104525857,25.7307483724601,12.8765737373968,-38.6073221098566, , , , , , , , , , , , ,5192,5401,5443,5389,5415,5443,5445,6147,5475,5420,5230,5465,3925,3805,3781,3718,3798,3858,3719,3777,3776,3877,4592,3777,6600,5859,5845,5893,5833,5831,5832,5837,5836,6557,6626,5853, , , , , , , , , , , , ,
5.55075919674953,-42.8920469882112,-48.4428061849607,39.890982148264,-99.4481671620331,-83.5049800971274,-99.8271116887617,-166.73014792675,-71.6940690629769,18.6706438957309,26.9967826908552,-45.6674265865858, , , , , , , , , , , , ,5349,5447,6203,5413,6219,6176,6206,6252,6225,5445,5312,6196,4585,3906,3813,3732,3839,4593,3743,3801,3801,4531,4628,3808,6618,6585,6549,6516,6512,6527,6525,6566,6575,6621,6703,6584, , , , , , , , , , , , ,
18.3775646302787,-42.8920469882112,-61.2696116184899,27.4745493047211,-103.316386367139,-99.6623022484858,-105.05923155797,-128.704636120744,-77.2094712708694,12.2572411789663,39.8235881243844,-52.0808293033504, , , , , , , , , , , , ,6054,6204,6239,6238,6226,6226,6230,6278,6254,6092,6211,6238,4617,4562,3831,4591,4593,4611,3787,3842,3844,4617,4649,3908,6658,6621,6622,6619,6604,6606,6608,6619,6620,6721,7374,6621, , , , , , , , , , , , ,
32.8968902420858,-34.313518430999,-67.2104086730848,16.6235230096207,-107.253088980248,-113.752444797947,-109.847340042741,-113.162381784855,-78.4669846889939,0.708314094456725,50.0536494575854,-50.7619635520418, , , , , , , , , , , , ,6073,6243,6240,6255,6246,6275,6305,7008,6275,6159,6240,6239,4643,4593,4581,4611,4612,4640,4601,4604,4598,4653,4678,4579,7380,6657,6623,6689,6660,6668,6665,6656,6655,7335,7409,6655, , , , , , , , , , , , ,
42.3728082588445,-24.9530951941551,-67.3259034529996,7.9792911225314,-110.444695265315,-124.128236300506,-114.404816355005,-84.6014426604975,-78.4669846889939,-8.70985653234455,54.8493558559221,-46.1394993235772, , , , , , , , , , , , ,6305,6245,6275,6305,7008,7000,7016,7080,7000,6184,6310,6295,4670,4634,4641,4632,4637,4676,4610,4626,4627,4683,4756,4612,7445,7383,6735,7367,7327,7351,7340,7373,7379,7447,7465,7385, , , , , , , , , , , , ,
48.2809701892617,-14.9762020119126,-63.2571722011743,7.9792911225314,-112.731380767883,-124.128236300506,-119.119192227578,-63.2020350796238,-78.4669846889939,-16.6523840886744,55.7690711952181,-39.1166871065433, , , , , , , , , , , , ,6999,6278,7022,7048,7048,7049,7049,7107,7081,6241,6987,7024,4758,4662,4661,4655,4675,4733,4656,4656,4655,5459,5433,4656,7505,7449,7395,7437,7425,7425,7441,7447,7445,7531,8265,7450, , , , , , , , , , , , ,
54.3953119712402,-9.95446673430639,-64.3497787055466,7.9792911225314,-114.306619468329,-124.128236300506,-122.823594899484,-48.7800508093501,-78.9678438155814,-22.2204226184668,59.3725453383935,-37.1521227199263, , , , , , , , , , , , ,7036,6871,7062,7077,7075,7131,7115,7907,7131,6898,7037,7062,5379,4750,4692,4669,4724,5484,4680,4680,4680,5480,5499,4686,8248,7502,7452,7531,7490,7489,7492,7488,7496,8079,8327,7501, , , , , , , , , , , , ,
58.6651079552302,-6.36792738177497,-65.0330353370051,7.9792911225314,-114.306619468329,-124.128236300506,-125.124229698217,-40.6508430100389,-80.020030067537,-26.1485902867275,61.8490716461177,-35.7004813593899, , , , , , , , , , , , ,7080,6882,7099,7115,7904,7908,7910,7918,7909,6966,7075,7096,5423,5484,4730,5454,5483,5498,4772,4718,4722,5544,5520,4772,8305,8247,7496,8164,8201,8193,8196,8231,8241,8307,8397,8253, , , , , , , , , , , , ,
60.4637570435231,-2.55557340988458,-63.0193304534076,7.9792911225314,-114.306619468329,-124.128236300506,-126.922747521395,-38.1846656912985,-80.1771942226803,-28.9540918168191,61.7415437484655,-32.787451931646, , , , , , , , , , , , ,7115,6915,7889,7861,7912,7913,7916,7981,7945,7051,7882,7887,5542,5497,5472,5475,5502,5531,5464,5495,5491,5569,5549,5482,8324,8308,8245,8405,8289,8293,8302,8305,8307,8392,9199,8315, , , , , , , , , , , , ,
57.9625755916274,-1.57620197726511,-59.5387775688924,7.9792911225314,-114.306619468329,-124.128236300506,-128.30276583012,-40.6442254587277,-79.5678257998153,-28.193186807181,58.75067658026,-30.5574897730786, , , , , , , , , , , , ,7875,7882,7926,7896,7949,7941,7976,8740,7973,7718,7926,7932,5569,5545,5532,5523,5529,5569,5470,5517,5518,6266,5633,5527,8976,8336,8313,9132,8351,8353,8359,8346,8345,9216,9215,8342, , , , , , , , , , , , ,
53.4342005296432,-4.68042158835488,-58.114622117998,7.9792911225314,-113.386043218087,-124.128236300506,-129.34981363943,-46.9547266265113,-78.4669846889939,-24.376889470644,55.7744113238207,-31.3975218531763, , , , , , , , , , , , ,7943,7925,7973,7944,8740,8755,8724,8767,8764,7768,7949,7973,5727,5575,5560,5545,5570,5662,5547,5547,5546,6338,6320,5547,9116,9059,8337,9205,9059,9042,9044,9082,9081,9249,9255,9083, , , , , , , , , , , , ,
50.152849617569,-8.35042425538564,-58.5032738729545,7.9792911225314,-112.401771664226,-124.128236300506,-130.141505390411,-56.09257619547,-78.4669846889939,-20.9012126810915,54.3280617452618,-33.42684906417, , , , , , , , , , , , ,7976,7981,8732,8775,8762,8764,8766,8839,8792,7912,8775,8736,6322,5684,5584,5568,5614,6317,5571,5571,5571,6378,6350,5579,9250,9163,9124,9296,9146,9147,9150,9157,9159,9284, ,9166, , , , , , , , , , , , ,
46.7118788780426,-9.33503983856986,-56.0469187166124,7.9792911225314,-111.181067968116,-124.128236300506,-130.741184025135,-67.0583082433322,-78.4669846889939,-18.6884195197362,51.3793987973275,-32.690979277591, , , , , , , , , , , , ,8564,8740,8777,8805,8807,8790,8791, ,8822,8564,8807,8779,6349,6307,5598,6316,6316,6367,5686,5611,5616,6407,6371,5681, ,9206,9173, ,9203,9203,9203,9206,9203, , ,9209, , , , , , , , , , , , ,
42.9326760112289,-10.9857849790763,-53.9184609903051,7.9792911225314,-110.067317463574,-124.128236300506,-131.194898555665,-78.929966997483,-78.4669846889939,-15.9734455160762,48.4255685007671,-32.4521229846905, , , , , , , , , , , , ,8627,8786,8822,8818, , , , , ,8586, ,8822,6376,6338,6308,6356,6336,6404,6322,6328,6322,7098,6400,6306, , ,9211, , , , , , , , , , , , , , , , , , , , , ,
39.1415650891026,-13.1946896349296,-52.3362547240321,11.7165135421011,-109.118005564114,-122.369707561911,-131.53125958529,-90.9020282702113,-78.4669846889939,-12.9734377270864,45.7389099065674,-32.7654721794807, , , , , , , , , , , , ,8759,8839, ,8848, , , , , ,8587, , ,6403,6380,6365,6379,6363,6452,6344,6351,6352,7165,6518,6336, , , , , , , , , , , , , , , , , , , , , , , , ,
32.901910308785,-18.242080684737,-51.1439909935219,15.3385116674907,-108.043941223095,-115.862265776349,-131.763495888766,-102.31025660031,-76.8971306459599,-7.32991481202392,42.0229506511536,-34.6930358391293, , , , , , , , , , , , , , , , , , , , , ,8759, , ,6582,6412,6390,6401,6406,7142,6381,6380,6380,7201,7098,6380, , , , , , , , , , , , , , , , , , , , , , , , ,
27.0840361519369,-20.2339897136035,-47.3180258655403,18.6631628202395,-107.257912674849,-111.180484846912,-131.892935055608,-112.643645231653,-75.0152863600247,-3.42502321916659,37.2010310087387,-33.7760077895718, , , , , , , , , , , , , , , , , , , , , , , , ,7127,6536,6418,6516,6471,7161,6406,6405,6405,7229,7117,6413, , , , , , , , , , , , , , , , , , , , , , , , ,
22.4367852743009,-22.1213236805602,-44.558108954861,21.2656830708473,-106.790664119087,-106.926925174212,-131.913144770129,-118.702250137203,-73.5826831025859,-0.15773079687024,33.4974471145811,-33.3397163177105, , , , , , , , , , , , , , , , , , , , , , , , ,7173,7016,6446,7139,7141,7189,6505,6445,6448,7257,7194,6475, , , , , , , , , , , , , , , , , , , , , , , , ,
18.0754336544627,-23.8097769438628,-41.8852105983255,23.2201459305328,-106.597118792901,-102.836502938005,-131.814067332057,-125.990949471786,-72.325355784149,2.86717164470012,29.9803221263942,-32.847493771094, , , , , , , , , , , , , , , , , , , , , , , , ,7199,7060,7127,7160,7160,7225,7149,7152,7147,7961,7224,7125, , , , , , , , , , , , , , , , , , , , , , , , ,
13.8170144160189,-27.1243661221788,-40.9413805381977,24.5007755268446,-106.606765068228,-99.7771477190811,-131.585628713853,-131.524194681105,-71.6309668208321,6.65367585308006,27.3791974771084,-34.0328733301881, , , , , , , , , , , , , , , , , , , , , , , , ,7226,7162,7188,7180,7186,7273,7204,7174,7175,8026,7349,7161, , , , , , , , , , , , , , , , , , , , , , , , ,
10.1573198731953,-29.2792938875293,-39.4366137607245,25.329574688457,-106.732726650832,-98.699501187203,-131.220490164609,-135.641976902572,-71.0649247262337,9.56098700716716,24.79696681696,-34.3579538241268, , , , , , , , , , , , , , , , , , , , , , , , ,7376,7203,7208,7202,7226,8005,7228,7204,7203,8065,7970,7204, , , , , , , , , , , , , , , , , , , , , , , , ,
8.27028753481425,-32.0614117645323,-40.3316992993465,25.3479378819175,-106.881425190207,-97.7879596072094,-130.715818041087,-137.899132685419,-71.1470761036152,11.8955621148591,24.3009934170805,-36.1965555319393, , , , , , , , , , , , , , , , , , , , , , , , ,8010,7232,7240,7224,7266,8022,7320,7228,7228,8079,7999,7236, , , , , , , , , , , , , , , , , , , , , , , , ,
5.71753167812056,-32.6604300496108,-38.3779617277313,24.8395613576143,-106.962016600822,-98.5035302476868,-130.074142936751,-138.895687468842,-71.7616632057852,13.4714491857452,22.047746702926,-35.5191958886709, , , , , , , , , , , , , , , , , , , , , , , , ,8036,7378,7334,7257,8004,8052,8010,7265,7273,8806,8059,7321, , , , , , , , , , , , , , , , , , , , , , , , ,
4.45797188333284,-33.1242235137947,-37.5821953971275,24.2864278217702,-106.89487750293,-98.6428107562613,-129.3035219093,-138.600254431596,-71.967512112967,14.3331258152311,21.0200836402303,-35.353209455461, , , , , , , , , , , , , , , , , , , , , , , , ,8063,8006,8003,7977,8022,8089,8016,8016,8011,8827,8088,8009, , , , , , , , , , , , , , , , , , , , , , , , ,
2.31802964337287,-33.4968061264806,-35.8148357698534,23.0241382043299,-106.618555257755,-99.3974867422658,-128.417276145315,-137.342448404163,-73.0124887663053,15.589388241554,19.0664327066132,-34.6558209481669, , , , , , , , , , , , , , , , , , , , , , , , ,8090,8025,8053,8044,8049,8125,8068,8038,8039,8916,8124,8054, , , , , , , , , , , , , , , , , , , , , , , , ,
2.36184384409051,-34.6589607695112,-37.0208046136016,21.5464990545928,-106.094749678699,-100.629083482526,-127.433545973698,-135.490831644804,-74.3272469911157,16.1485584627105,19.6913242288461,-35.8398826915563, , , , , , , , , , , , , , , , , , , , , , , , ,8176,8067,8075,8067,8086,8856,8092,8068,8068,8944,8834,8074, , , , , , , , , , , , , , , , , , , , , , , , ,
2.36127893649603,-36.2067888719739,-38.5680678084699,20.3648597438954,-105.311066109255,-102.525280824998,-126.374819005779,-133.082286917842,-75.500776182861,16.9227549677391,20.464673372483,-37.3874283402218, , , , , , , , , , , , , , , , , , , , , , , , ,8812,8095,8103,8080,8123,8870,8155,8092,8093,8988,8909,8104, , , , , , , , , , , , , , , , , , , , , , , , ,
2.23932262393731,-37.3715331942462,-39.6108558181835,18.7574191755949,-104.281467025007,-104.627079773243,-127.422013320673,-130.499060418751,-76.7149370924959,17.5661052851546,20.9250892210605,-38.4911945062147, , , , , , , , , , , , , , , , , , , , , , , , ,8819,8134,8122,8869,8855,8905,8812,8131,8135, ,8938,8198, , , , , , , , , , , , , , , , , , , , , , , , ,
0.68313207789145,-38.6823052374882,-39.3654373153796,17.2107748782178,-103.044529277924,-106.446173863724,-128.606881510975,-127.773868450422,-77.6678676887319,18.9995865797985,20.0242846966356,-39.0238712764338, , , , , , , , , , , , , , , , , , , , , , , , ,8872,8861,8838,8952,8875,8942,8837,8866,8860, ,8972,8844, , , , , , , , , , , , , , , , , , , , , , , , ,
-0.809421487963228,-38.8839088431626,-38.0744873551993,15.7866005861761,-101.991486230125,-108.305563794668,-129.88254527622,-125.211543082386,-78.4669846889939,19.846665165563,18.6325329336181,-38.4791980991808, , , , , , , , , , , , , , , , , , , , , , , , ,8914,8879,8904,8974,8901,8995,8919,8889,8890, , ,8876, , , , , , , , , , , , , , , , , , , , , , , , ,
-1.27847634382903,-40.1784378039895,-38.8999614601604,14.5278686032412,-102.28006947461,-110.135944076396,-131.260806149669,-122.753931225966,-78.4669846889939,20.7284570739094,18.8107425581658,-39.5391996320748, , , , , , , , , , , , , , , , , , , , , , , , ,8941,8918,8927,8987,8943, ,8944,8919,8918, , ,8920, , , , , , , , , , , , , , , , , , , , , , , , ,
-2.85754172083245,-41.0704865218575,-38.212944801025,13.4587815986284,-102.194789372655,-111.887466750532,-132.751288286035,-120.63044479432,-78.4669846889939,21.9640141213451,17.6777015400963,-39.6417156614411, , , , , , , , , , , , , , , , , , , , , , , , ,8972,8948,8956, ,8987, ,9025,8943,8943, , ,8952, , , , , , , , , , , , , , , , , , , , , , , , ,
-4.36474319560313,-42.8140264503413,-38.4492832547381,12.5859262849688,-102.444138568638,-113.527826372976,-132.206790256393,-118.750350454436,-78.4669846889939,23.5893848229723,17.0422700295676,-40.6316548525396, , , , , , , , , , , , , , , , , , , , , , , , , ,9001,8974, , , , ,8985,8987, , ,9050, , , , , , , , , , , , , , , , , , , , , , , , ,
-4.93444806025679,-42.8920469882112,-37.9575989279543,11.9004883398353,-102.745242876228,-115.212464957987,-133.106540087762,-117.252080267482,-78.4669846889939,23.9132475242341,16.5115754338489,-40.4248229580826, , , , , , , , , , , , , , , , , , , , , , , , , , , , , , , , , , , , , , , , , , , , , , , , , , , , , , , , , , , , ,
-6.36719833705281,-42.8920469882112,-36.5248486511583,11.3813162073819,-103.146097801758,-116.56953006102,-133.490918459735,-116.024644074444,-78.4888114981506,24.6296226626321,15.0788251570528,-39.7084478196846, , , , , , , , , , , , , , , , , , , , , , , , , , , , , , , , , , , , , , , , , , , , , , , , , , , , , , , , , , , , ,
-7.23244086683241,-42.8920469882112,-35.6596061213787,10.9985587250181,-101.943240851436,-117.752505320435,-133.089102612549,-115.269112361458,-78.6740190047469,25.0622439275219,14.2135826272732,-39.2758265547948, , , , , , , , , , , , , , , , , , , , , , , , , , , , , , , , , , , , , , , , , , , , , , , , , , , , , , , , , , , , ,
-7.7604719126735,-42.8920469882112,-35.1315750755376,10.7175426277368,-102.661809808172,-118.814310820246,-132.754178938437,-114.604659417764,-78.6600052721523,25.3262594504425,13.6855515814321,-39.0118110318743, , , , , , , , , , , , , , , , , , , , , , , , , , , , , , , , , , , , , , , , , , , , , , , , , , , , , , , , , , , , ,
-8.56944975670883,-42.8920469882112,-34.3225972315023,10.5025273642971,-103.576318049611,-119.761761215843,-132.504196173502,-114.384607830597,-78.4669846889939,25.7307483724601,12.8765737373968,-38.6073221098566, , , , , , , , , , , , , , , , , , , , , , , , , , , , , , , , , , , , , , , , , , , , , , , , , , , , , , , , , , , , ,
-8.56944975670883,-42.8920469882112,-34.3225972315023,10.3199965306674,-103.00073692183,-120.59863567613,-132.355478665782,-114.103963906846,-78.4669846889939,25.7307483724601,12.8765737373968,-38.6073221098566, , , , , , , , , , , , , , , , , , , , , , , , , , , , , , , , , , , , , , , , , , , , , , , , , , , , , , , , , , , , ,
-8.56944975670883,-42.8920469882112,-34.3225972315023,10.1412209811311,-104.310612118812,-121.323484159095,-132.321313739392,-114.189262747306,-78.4669846889939,25.7307483724601,12.8765737373968,-38.6073221098566, , , , , , , , , , , , , , , , , , , , , , , , , , , , , , , , , , , , , , , , , , , , , , , , , , , , , , , , , , , , ,
-8.56944975670883,-42.8920469882112,-34.3225972315023,9.94394237614537,-104.194293329509,-121.928692544364,-132.410773101172,-114.091220394449,-78.4669846889939,25.7307483724601,12.8765737373968,-38.6073221098566, , , , , , , , , , , , , , , , , , , , , , , , , , , , , , , , , , , , , , , , , , , , , , , , , , , , , , , , , , , , ,
-8.56944975670883,-42.8920469882112,-34.3225972315023,9.71314776793278,-104.342064968399,-122.458992496454,-132.627790462188,-114.043782647634,-78.4669846889939,25.7307483724601,12.8765737373968,-38.6073221098566, , , , , , , , , , , , , , , , , , , , , , , , , , , , , , , , , , , , , , , , , , , , , , , , , , , , , , , , , , , , ,
-8.56944975670883,-42.8920469882112,-34.3225972315023,9.44100885964698,-104.732531947943,-122.903216488733,-132.970593319751,-113.959169042158,-78.4669846889939,25.7307483724601,12.8765737373968,-38.6073221098566, , , , , , , , , , , , , , , , , , , , , , , , , , , , , , , , , , , , , , , , , , , , , , , , , , , , , , , , , , , , ,
-8.56944975670883,-42.8920469882112,-34.3225972315023,9.12613183142625,-106.484912614188,-123.267869465283,-133.431561549522,-113.919627055335,-77.7533604861396,25.7307483724601,12.8765737373968,-38.6073221098566, , , , , , , , , , , , , , , , , , , , , , , , , , , , , , , , , , , , , , , , , , , , , , , , , , , , , , , , , , , , ,
-8.56944975670883,-42.8920469882112,-34.3225972315023,8.84694249303865,-108.230935282756,-123.557741398548,-133.997542396794,-113.978070711817,-76.9547359882515,25.7307483724601,12.8765737373968,-38.6073221098566, , , , , , , , , , , , , , , , , , , , , , , , , , , , , , , , , , , , , , , , , , , , , , , , , , , , , , , , , , , , ,
-8.56944975670883,-42.8920469882112,-34.3225972315023,8.46155920951659,-109.92308885367,-123.777198362748,-134.65058795626,-113.750790751096,-76.1541787320483,25.7307483724601,12.8765737373968,-38.6073221098566, , , , , , , , , , , , , , , , , , , , , , , , , , , , , , , , , , , , , , , , , , , , , , , , , , , , , , , , , , , , ,
-8.54204581506003,-42.8920469882112,-34.3500011731511,8.39961615405886,-111.519829769495,-123.931594913868,-135.369019167797,-113.719588019001,-75.3721179087213,25.7170464016357,12.9039776790456,-38.621024080681, , , , , , , , , , , , , , , , , , , , , , , , , , , , , , , , , , , , , , , , , , , , , , , , , , , , , , , , , , , , ,
-8.56944975670883,-42.8920469882112,-34.3225972315023,7.9792911225314,-112.988377099379,-124.028628811703,-137.329582726676,-113.407996743295,-74.6297051351702,25.7307483724601,12.8765737373968,-38.6073221098566, , , , , , , , , , , , , , , , , , , , , , , , , , , , , , , , , , , , , , , , , , , , , , , , , , , , , , , , , , , , ,
-8.56944975670883,-42.8920469882112,-34.3225972315023,7.9792911225314,-114.306619468329,-124.079450383121,-139.114267285782,-113.162381784855,-73.9488246048119,25.7307483724601,12.8765737373968,-38.6073221098566, , , , , , , , , , , , , , , , , , , , , , , , , , , , , , , , , , , , , , , , , , , , , , , , , , , , , , , , , , , , ,
-8.56944975670883,-42.8920469882112,-34.3225972315023,7.9792911225314,-114.306619468329,-124.09934557172,-140.709406090432,-113.162381784855,-73.3517953427972,25.7307483724601,12.8765737373968,-38.6073221098566, , , , , , , , , , , , , , , , , , , , , , , , , , , , , , , , , , , , , , , , , , , , , , , , , , , , , , , , , , , , ,
-8.56944975670883,-42.8920469882112,-34.3225972315023,7.9792911225314,-114.306619468329,-124.107851402195,-142.107767561187,-113.162381784855,-72.8607799210256,25.7307483724601,12.8765737373968,-38.6073221098566, , , , , , , , , , , , , , , , , , , , , , , , , , , , , , , , , , , , , , , , , , , , , , , , , , , , , , , , , , , , ,
-8.56944975670883,-42.8920469882112,-34.3225972315023,7.9792911225314,-114.306619468329,-124.128236300506,-142.107767561187,-113.068000657425,-72.4969454101639,25.7307483724601,12.8765737373968,-38.6073221098566, , , , , , , , , , , , , , , , , , , , , , , , , , , , , , , , , , , , , , , , , , , , , , , , , , , , , , , , , , , , ,
-8.56944975670883,-42.8920469882112,-34.3225972315023,7.9792911225314,-114.306619468329,-124.128236300506,-142.107767561187,-112.973180437441,-72.2794432450622,25.7307483724601,12.8765737373968,-38.6073221098566, , , , , , , , , , , , , , , , , , , , , , , , , , , , , , , , , , , , , , , , , , , , , , , , , , , , , , , , , , , , ,
-8.56944975670883,-43.940699404073,-35.3712496473642,7.9792911225314,-114.306619468329,-124.128236300506,-142.107767561187,-112.999583051005,-72.2242942417935,26.2550745803911,13.4008999453277,-39.6559745257185, , , , , , , , , , , , , , , , , , , , , , , , , , , , , , , , , , , , , , , , , , , , , , , , , , , , , , , , , , , , ,
-8.56944975670883,-45.1651081538794,-36.5956583971705,7.9792911225314,-114.306619468329,-124.128236300506,-142.107767561187,-113.162381784855,-72.3432871946365,26.8672789552942,14.0131043202309,-40.8803832755248, , , , , , , , , , , , , , , , , , , , , , , , , , , , , , , , , , , , , , , , , , , , , , , , , , , , , , , , , , , , ,
-8.56944975670883,-46.5774290538484,-38.0079792971395,7.9792911225314,-114.306619468329,-124.128236300506,-142.107767561187,-113.369096037847,-72.6430170971075,27.5734394052787,14.7192647702154,-42.2927041754938, , , , , , , , , , , , , , , , , , , , , , , , , , , , , , , , , , , , , , , , , , , , , , , , , , , , , , , , , , , , ,
-8.56944975670883,-48.1828848063944,-39.6134350496856,7.9792911225314,-114.306619468329,-124.128236300506,-142.107767561187,-113.905837535857,-73.1241913913091,28.3761672815518,15.5219926464884,-43.8981599280399, , , , , , , , , , , , , , , , , , , , , , , , , , , , , , , , , , , , , , , , , , , , , , , , , , , , , , , , , , , , ,
-8.56944975670883,-49.9780150905447,-41.4085653338358,7.9792911225314,-114.306619468329,-124.128236300506,-142.107767561187,-114.501996834581,-73.7813152465665,29.2737324236269,16.4195577885636,-45.6932902121901, , , , , , , , , , , , , , , , , , , , , , , , , , , , , , , , , , , , , , , , , , , , , , , , , , , , , , , , , , , , ,
-8.56944975670883,-51.9496420256123,-43.3801922689035,7.9792911225314,-114.306619468329,-124.128236300506,-142.107767561187,-115.204376608071,-74.6028324081554,30.2595458911607,17.4053712560974,-47.6649171472577, , , , , , , , , , , , , , , , , , , , , , , , , , , , , , , , , , , , , , , , , , , , , , , , , , , , , , , , , , , , ,
-11.9933549010901,-54.0747892572995,-42.0814343562094,7.9792911225314,-114.306619468329,-124.128236300506,-142.107767561187,-116.005270794098,-75.5717525561227,33.0340720791949,15.0440397275597,-48.0781118067543, , , , , , , , , , , , , , , , , , , , , , , , , , , , , , , , , , , , , , , , , , , , , , , , , , , , , , , , , , , , ,
-18.7697175149145,-56.3216390630819,-37.5519215481674,7.9792911225314,-114.306619468329,-124.128236300506,-142.107767561187,-116.881900957886,-76.6667461901855,37.5456782889983,9.39110201662651,-46.9367803056245, , , , , , , , , , , , , , , , , , , , , , , , , , , , , , , , , , , , , , , , , , , , , , , , , , , , , , , , , , , , ,
-23.4547092347744,-58.6514664695333,-35.1967572347588,7.25721645261327,-114.306619468329,-124.128236300506,-142.107767561187,-117.811502325245,-77.8636398722733,41.053087852154,5.87102399999229,-46.9241118521459, , , , , , , , , , , , , , , , , , , , , , , , , , , , , , , , , , , , , , , , , , , , , , , , , , , , , , , , , , , , ,
-28.7715661074317,-61.0213733856444,-32.2498072782127,6.3260570769797,-114.306619468329,-124.128236300506,-142.107767561187,-118.77379367339,-78.4669846889939,44.8964697465382,1.73912058539053,-46.6355903319284, , , , , , , , , , , , , , , , , , , , , , , , , , , , , , , , , , , , , , , , , , , , , , , , , , , , , , , , , , , , ,
-34.841320984333,-64.2774271148014,-29.4361061304684,5.18022442649984,-114.306619468329,-124.128236300506,-142.107767561187,-119.753092297216,-78.4669846889939,49.5593740495673,-2.70260742693223,-46.8567666226348, , , , , , , , , , , , , , , , , , , , , , , , , , , , , , , , , , , , , , , , , , , , , , , , , , , , , , , , , , , , ,
-38.7552708579779,-67.3494298082253,-28.5941589502473,4.15284605095811,-114.306619468329,-124.182878934201,-142.107767561187,-120.739827287764,-78.932919761226,53.0523503331017,-5.08055595386521,-47.9717943792362, , , , , , , , , , , , , , , , , , , , , , , , , , , , , , , , , , , , , , , , , , , , , , , , , , , , , , , , , , , , ,
-43.152981804261,-70.222656298801,-27.06967449454,2.64021593503238,-114.958035144532,-126.983388259376,-142.107767561187,-121.731267959038,-80.3029103345502,56.6878190515311,-8.04165365486041,-48.6461653966703, , , , , , , , , , , , , , , , , , , , , , , , , , , , , , , , , , , , , , , , , , , , , , , , , , , , , , , , , , , , ,
-47.7445619972844,-72.8907421686529,-25.1461801713684,1.14059293027011,-116.277437007716,-129.801180064413,-143.081632857508,-122.731372668075,-81.6747194362819,60.3176520829688,-11.2991909129579,-49.0184611700105, , , , , , , , , , , , , , , , , , , , , , , , , , , , , , , , , , , , , , , , , , , , , , , , , , , , , , , , , , , , ,
-51.6317091181273,-75.3569807185743,-23.725271600447,0.133111499669294,-117.646390836334,-131.730132007812,-143.869383669559,-123.749766316565,-83.042934798962,63.4943449183509,-13.9532187588401,-49.5411261595105, , , , , , , , , , , , , , , , , , , , , , , , , , , , , , , , , , , , , , , , , , , , , , , , , , , , , , , , , , , , ,
-53.3911068940921,-77.6351089592602,-24.2440020651681,-0.889311108029606,-119.097374112261,-134.0335877271,-144.885111935253,-124.799956245909,-84.5312583742425,65.5131079266762,-14.5735524144619,-50.939555512214, , , , , , , , , , , , , , , , , , , , , , , , , , , , , , , , , , , , , , , , , , , , , , , , , , , , , , , , , , , , ,
-56.1405365486954,-79.7493616385739,-23.6088250898785,-2.36672456934744,-120.661955244204,-136.681424397517,-146.108476863292,-125.896981651239,-86.1257907066672,67.9449490936347,-16.2658557294084,-51.679093364226, , , , , , , , , , , , , , , , , , , , , , , , , , , , , , , , , , , , , , , , , , , , , , , , , , , , , , , , , , , , ,
-58.2705522304353,-81.7032782855199,-23.4327260550846,-3.92382890394439,-122.370321745061,-138.665828800552,-147.445003654078,-127.054752312118,-87.5367653058683,69.9869152579777,-17.4189130876753,-52.5680021703021, , , , , , , , , , , , , , , , , , , , , , , , , , , , , , , , , , , , , , , , , , , , , , , , , , , , , , , , , , , , ,
-59.2109339523441,-83.2723895238109,-24.0614555714668,-5.48743255822788,-124.081807900136,-140.7168312927,-148.927409782656,-128.28336540895,-89.3964343720428,71.2416617380776,-17.5747391904386,-53.6669225476387, , , , , , , , , , , , , , , , , , , , , , , , , , , , , , , , , , , , , , , , , , , , , , , , , , , , , , , , , , , , ,
-59.7615047751424,-85.0977723604792,-25.3362675853367,-6.7040452548246,-125.894564355667,-142.595726665669,-150.587627513766,-129.58669527495,-90.9047411841134,72.429638567811,-17.2126185949028,-55.2170199729078, , , , , , , , , , , , , , , , , , , , , , , , , , , , , , , , , , , , , , , , , , , , , , , , , , , , , , , , , , , , ,
-60.0806624946716,-86.9092883707397,-26.828625876068,-7.88273745685129,-128.196761341999,-144.190221523056,-152.455607057229,-130.960530986545,-92.5091399611874,73.4949754327057,-16.6260183093017,-56.8689571234037, , , , , , , , , , , , , , , , , , , , , , , , , , , , , , , , , , , , , , , , , , , , , , , , , , , , , , , , , , , , ,
-60.4657325374895,-88.7570276624597,-28.2912951249701,-9.09538308437064,-130.722937808938,-145.93316264138,-154.557742457279,-132.391487697278,-94.4798308759437,74.6113800999747,-16.0872187062596,-58.5241613937148, , , , , , , , , , , , , , , , , , , , , , , , , , , , , , , , , , , , , , , , , , , , , , , , , , , , , , , , , , , , ,
-60.7953371096128,-90.6885792371666,-29.8932421275537,-10.3360517515202,-133.482114951294,-147.963080818429,-156.690994147555,-133.856833564883,-96.2130459086691,75.7419581733898,-15.4510474910295,-60.29091068236, , , , , , , , , , , , , , , , , , , , , , , , , , , , , , , , , , , , , , , , , , , , , , , , , , , , , , , , , , , , ,
-61.0671643851309,-92.746453369758,-31.6792889846271,-11.5961885016285,-136.478036260816,-150.430726155074,-159.139889319879,-135.32525746474,-98.1343471227123,76.9068088774446,-14.6939377002518,-62.2128711771924, , , , , , , , , , , , , , , , , , , , , , , , , , , , , , , , , , , , , , , , , , , , , , , , , , , , , , , , , , , , ,
-61.4255512880164,-94.9658864527935,-33.5403351647771,-12.8646332378222,-139.708761562483,-152.812245469254,-161.920392142105,-136.758477634937,-99.8825705450239,78.1957188704051,-13.9426080616196,-64.2531108087851, , , , , , , , , , , , , , , , , , , , , , , , , , , , , , , , , , , , , , , , , , , , , , , , , , , , , , , , , , , , ,
-62.1246930203791,-97.3730658863035,-35.2483728659244,-14.1278033498276,-143.166089818874,-155.111777164176,-164.94625177242,-138.113496404965,-101.860031039978,79.7488794533414,-13.4381600772273,-66.3107193761138, , , , , , , , , , , , , , , , , , , , , , , , , , , , , , , , , , , , , , , , , , , , , , , , , , , , , , , , , , , , ,
-62.8791651077375,-99.9837672360368,-37.1046021282992,-15.3700314070751,-146.834836171758,-157.203618216374,-168.20493760066,-139.439645722005,-103.703364438225,81.4314661718873,-12.8872814897191,-68.5441846821679, , , , , , , , , , , , , , , , , , , , , , , , , , , , , , , , , , , , , , , , , , , , , , , , , , , , , , , , , , , , ,
-63.9171827419012,-102.208632833864,-38.2914500919627,-16.5740573695893,-150.692068274238,-159.279628845041,-171.674574065408,-140.503902683739,-105.406488386897,83.0629077878827,-12.8128663249692,-70.2500414629132, , , , , , , , , , , , , , , , , , , , , , , , , , , , , , , , , , , , , , , , , , , , , , , , , , , , , , , , , , , , ,
-65.1523123802343,-104.465901417314,-39.3135890370796,-17.646339611115,-153.714872510103,-161.468571461868,-175.32476566709,-141.428394480629,-107.361174370452,84.8091068987742,-12.9193616715772,-71.8897452271966, , , , , , , , , , , , , , , , , , , , , , , , , , , , , , , , , , , , , , , , , , , , , , , , , , , , , , , , , , , , ,
-66.5449020437121,-107.502862955544,-40.9579609118322,-18.7191852794628,-157.680734084485,-163.581063529728,-178.279714930672,-142.041767336344,-109.163642843876,87.0238824996283,-12.7934705659399,-74.2304119336881, , , , , , , , , , , , , , , , , , , , , , , , , , , , , , , , , , , , , , , , , , , , , , , , , , , , , , , , , , , , ,
-68.1606120534112,-110.700102763645,-42.539490710234,-19.6996201869644,-160.562880919726,-165.622390210971,-181.613393623042,-142.412626368949,-110.612332508286,89.4303574085283,-12.8105606715885,-76.6197967369394, , , , , , , , , , , , , , , , , , , , , , , , , , , , , , , , , , , , , , , , , , , , , , , , , , , , , , , , , , , , ,
-69.8816052216155,-112.34876203972,-42.4671568181049,-20.1105720407815,-163.307503343726,-167.597172627273,-185.365154114898,-142.4718502594,-112.430478227694,91.1151836306681,-13.7072242017553,-77.4079594289125, , , , , , , , , , , , , , , , , , , , , , , , , , , , , , , , , , , , , , , , , , , , , , , , , , , , , , , , , , , , ,
-71.7003730815991,-113.943487183557,-42.243114101958,-20.8606855438156,-165.874651346872,-169.508613652058,-189.132613045564,-142.56990898876,-113.556899609283,92.8219301325783,-14.7286294898205,-78.0933006427574, , , , , , , , , , , , , , , , , , , , , , , , , , , , , , , , , , , , , , , , , , , , , , , , , , , , , , , , , , , , ,
-73.6655357018618,-115.459235541156,-41.7936998392946,-21.4786019455597,-168.231109860178,-171.357995549553,-191.772410123071,-142.053375749231,-114.506838893096,94.5623856215092,-15.9359179312835,-78.6264676902254, , , , , , , , , , , , , , , , , , , , , , , , , , , , , , , , , , , , , , , , , , , , , , , , , , , , , , , , , , , , ,
-75.523543809067,-116.872707600264,-41.3491637911967,-21.4647298335896,-170.351095326059,-173.144514997792,-194.602961986151,-142.019063759492,-115.431775802419,96.1981257046655,-17.0871900089351,-79.1109356957301, , , , , , , , , , , , , , , , , , , , , , , , , , , , , , , , , , , , , , , , , , , , , , , , , , , , , , , , , , , , ,
-77.5486598406074,-118.163313304308,-40.6146534637009,-21.8025136892997,-172.216369811531,-174.865491699206,-196.082747279304,-141.118242363724,-116.043889952174,97.855986572458,-18.4670031884532,-79.3889833840044, , , , , , , , , , , , , , , , , , , , , , , , , , , , , , , , , , , , , , , , , , , , , , , , , , , , , , , , , , , , ,
-79.4899707753369,-119.313804211735,-39.8238334363981,-22.0001966951171,-173.815822452015,-176.516931225931,-197.315621853099,-139.881429356894,-116.297998388299,99.4018874935361,-19.8330686694693,-79.5688188240664, , , , , , , , , , , , , , , , , , , , , , , , , , , , , , , , , , , , , , , , , , , , , , , , , , , , , , , , , , , , ,
-81.2199102166604,-120.310596432342,-39.0906862156816,-21.6120552185759,-175.14461695804,-178.046254610879,-198.311025760926,-139.692001483319,-116.236771051148,100.765253324501,-21.0646120004893,-79.7006413240116, , , , , , , , , , , , , , , , , , , , , , , , , , , , , , , , , , , , , , , , , , , , , , , , , , , , , , , , , , , , ,
-82.7733716971396,-121.14383287053,-38.3704611733907,-21.5467979481308,-176.203040476316,-179.255973412331,-199.088096572466,-139.559473792629,-115.924042129633,101.958602283835,-22.2014552618744,-79.7571470219604, , , , , , , , , , , , , , , , , , , , , , , , , , , , , , , , , , , , , , , , , , , , , , , , , , , , , , , , , , , , ,
-84.3274640222704,-121.807240001452,-37.4797759791819,-21.3326381262008,-176.995210249247,-180.310940440575,-199.674396053792,-139.391644234978,-115.445331749318,103.067352011861,-23.4238440215441,-79.643507990317, , , , , , , , , , , , , , , , , , , , , , , , , , , , , , , , , , , , , , , , , , , , , , , , , , , , , , , , , , , , ,
-85.6340835698257,-122.29782997042,-36.6637464005945,-21.0429695513123,-177.527803472294,-181.207153533907,-200.104125922353,-139.220026125017,-114.832873798832,103.965956770123,-24.4851685846155,-79.4807881855072, , , , , , , , , , , , , , , , , , , , , , , , , , , , , , , , , , , , , , , , , , , , , , , , , , , , , , , , , , , , ,
-86.6436922175101,-122.615499028612,-35.9718068111018,-20.6078547569511,-177.80897211668,-181.942836784169,-200.415883125435,-139.071825515245,-114.121003187852,104.629595623061,-25.3359427032041,-79.2936529198568, , , , , , , , , , , , , , , , , , , , , , , , , , , , , , , , , , , , , , , , , , , , , , , , , , , , , , , , , , , , ,
-87.2511316355172,-122.762581505296,-35.5114498697791,-20.1400715903436,-177.847574139461,-182.518233819889,-200.650059486809,-138.969414596642,-113.344124688127,105.006856570407,-25.869840882869,-79.1370156875376, , , , , , , , , , , , , , , , , , , , , , , , , , , , , , , , , , , , , , , , , , , , , , , , , , , , , , , , , , , , ,
-86.7081012974505,-122.743418817687,-36.0353175202366,-19.6002025043273,-177.652786458809,-182.935462624961,-200.846050969754,-138.321106590321,-112.53484797145,104.725760057569,-25.3363918886068,-79.3893681689617, , , , , , , , , , , , , , , , , , , , , , , , , , , , , , , , , , , , , , , , , , , , , , , , , , , , , , , , , , , , ,
-85.6308519965119,-122.563983077162,-36.9331310806502,-18.4218272955006,-177.234084220069,-183.19842431936,-201.039488300126,-136.847421100888,-111.722402621536,104.097417536837,-24.3488604579308,-79.7485570789061, , , , , , , , , , , , , , , , , , , , , , , , , , , , , , , , , , , , , , , , , , , , , , , , , , , , , , , , , , , , ,
-85.666030224073,-122.231563399108,-36.5655331750351,-17.7678309664158,-176.601512397042,-183.312736743596,-201.259723145438,-135.462452132149,-110.931406952236,103.948796811591,-24.5502485245189,-79.3985482870715, , , , , , , , , , , , , , , , , , , , , , , , , , , , , , , , , , , , , , , , , , , , , , , , , , , , , , , , , , , , ,
-85.5320755622793,-121.754500376906,-36.2224248146268,-17.0698838904167,-175.766154905893,-183.285649727698,-201.5277968836,-134.167082914789,-110.181027883297,103.643287969593,-24.6548253738262,-78.9884625957664, , , , , , , , , , , , , , , , , , , , , , , , , , , , , , , , , , , , , , , , , , , , , , , , , , , , , , , , , , , , ,
-85.1961908865824,-121.141952477892,-35.9457615913096,-15.7108481441209,-173.749101936645,-183.125900245161,-201.855079993977,-132.954342580432,-109.484542401818,103.169071682237,-24.6252146476363,-78.5438570346007, , , , , , , , , , , , , , , , , , , , , , , , , , , , , , , , , , , , , , , , , , , , , , , , , , , , , , , , , , , , ,
-84.6855067306615,-120.403693967159,-35.7181872364976,-14.9466890579949,-172.542905011114,-182.843485629223,-202.242704986083,-131.810598621817,-108.84929355646,102.54460034891,-24.4836597470819,-78.0609406018282, , , , , , , , , , , , , , , , , , , , , , , , , , , , , , , , , , , , , , , , , , , , , , , , , , , , , , , , , , , , ,
-84.0298373709743,-119.549962437133,-35.5201250661588,-14.1587353902186,-170.336990495154,-182.449364504234,-202.681833707287,-130.717168080275,-108.277019191156,101.789899904054,-24.2548561524077,-77.5350437516459, , , , , , , , , , , , , , , , , , , , , , , , , , , , , , , , , , , , , , , , , , , , , , , , , , , , , , , , , , , , ,
-83.2600960552471,-118.591376617487,-35.3312805622396,-13.1760791714379,-168.124968258343,-181.9551218952,-203.154708764158,-129.652236353381,-107.764515059943,100.925736336367,-23.9644077465036,-76.961328589863, , , , , , , , , , , , , , , , , , , , , , , , , , , , , , , , , , , , , , , , , , , , , , , , , , , , , , , , , , , , ,
-82.406753738942,-117.538923008113,-35.1321692691714,-12.356143665534,-165.906673218386,-181.372644062135,-203.63635275406,-128.592941954089,-107.304575878512,99.9728383735278,-23.6372922348852,-76.3355461386423, , , , , , , , , , , , , , , , , , , , , , , , , , , , , , , , , , , , , , , , , , , , , , , , , , , , , , , , , , , , ,
-81.498469372684,-116.403971324535,-34.9055019518511,-11.1925879343038,-163.682386126152,-180.713839000032,-204.096719183329,-127.517451308542,-106.961011582964,98.9512203486097,-23.2964837104164,-75.654736638193, , , , , , , , , , , , , , , , , , , , , , , , , , , , , , , , , , , , , , , , , , , , , , , , , , , , , , , , , , , , ,
-80.5609661140518,-115.198241379419,-34.6372752653668,-10.3585612064432,-161.45500275682,-179.990416246259,-204.503075597559,-126.406822655356,-107.086984431582,97.8796037467354,-22.9618454243424,-74.9177583223926, , , , , , , , , , , , , , , , , , , , , , , , , , , , , , , , , , , , , , , , , , , , , , , , , , , , , , , , , , , , ,
-79.6161580298481,-113.93362761443,-34.3174695845822,-9.36045762262339,-159.231479500644,-179.2137107783,-204.822403043101,-125.24646526637,-107.005776011816,96.7748928221394,-22.6493442226329,-74.1255485995062, , , , , , , , , , , , , , , , , , , , , , , , , , , , , , , , , , , , , , , , , , , , , , , , , , , , , , , , , , , , ,
-78.6814868969942,-112.621810591887,-33.9403236948923,-8.52770829374245,-157.023382177715,-178.394510717626,-205.023615231751,-124.636057095246,-106.9415250356,95.6516487444405,-22.3705816010509,-73.2810671433893, , , , , , , , , , , , , , , , , , , , , , , , , , , , , , , , , , , , , , , , , , , , , , , , , , , , , , , , , , , , ,
-77.7694328491112,-111.273648461216,-33.5042156121043,-7.70066678587765,-154.846482560382,-177.542843665011,-205.07943712833,-124.863650332757,-106.631774145174,94.5215406551635,-22.1326086185034,-72.3889320366598, , , , , , , , , , , , , , , , , , , , , , , , , , , , , , , , , , , , , , , , , , , , , , , , , , , , , , , , , , , , ,
-76.8871991440017,-109.898416546445,-33.0112174024429,-6.16013231262255,-152.998954797874,-176.667700837008,-204.967836896479,-125.024325019122,-106.408146867097,93.3928078452233,-21.9379908707794,-71.4548169744436, , , , , , , , , , , , , , , , , , , , , , , , , , , , , , , , , , , , , , , , , , , , , , , , , , , , , , , , , , , , ,
-76.0366015828709,-108.503009613812,-32.4664080309409,-5.23341377640296,-151.131043869946,-175.776720191854,-204.672962419469,-125.126662440463,-106.76592553622,92.2698055983415,-21.7850967759649,-70.4847088223762, , , , , , , , , , , , , , , , , , , , , , , , , , , , , , , , , , , , , , , , , , , , , , , , , , , , , , , , , , , , ,
-75.2141943692225,-107.091221319284,-31.8770269500611,-4.43821974155495,-149.186014926717,-174.875883224039,-204.185575621978,-125.18679851904,-106.392488619591,91.1527078442532,-21.6685837095806,-69.4841241346723, , , , , , , , , , , , , , , , , , , , , , , , , , , , , , , , , , , , , , , , , , , , , , , , , , , , , , , , , , , , ,
-74.4116385649618,-105.663180980988,-31.2515424160259,-3.65587989217844,-147.345991930079,-173.969284349794,-203.503003772251,-125.226457709045,-106.177265933296,90.037409772975,-21.5800480744679,-68.4573616985067, , , , , , , , , , , , , , , , , , , , , , , , , , , , , , , , , , , , , , , , , , , , , , , , , , , , , , , , , , , , ,
-73.6162771445395,-104.214981131615,-30.5987039870753,-2.88556320910599,-145.619337526598,-173.059006629241,-202.628652820654,-125.270512660742,-105.798392978769,88.9156291380773,-21.5087865787321,-67.4068425593449, , , , , , , , , , , , , , , , , , , , , , , , , , , , , , , , , , , , , , , , , , , , , , , , , , , , , , , , , , , , ,
-72.811833461524,-102.738485780802,-29.9266523192781,-2.12487676472975,-144.007466761385,-172.145100779581,-201.571165453847,-125.344325266581,-105.356406613351,87.7751596211632,-21.4425905711229,-66.33256905004, , , , , , , , , , , , , , , , , , , , , , , , , , , , , , , , , , , , , , , , , , , , , , , , , , , , , , , , , , , , ,
-71.9791162794682,-101.221281289855,-29.2421650103867,-1.36962253877087,-142.503234031303,-171.225636590644,-200.343348819995,-125.471143927669,-104.904143510682,86.6001987846617,-21.3684756345407,-65.2317231501206, , , , , , , , , , , , , , , , , , , , , , , , , , , , , , , , , , , , , , , , , , , , , , , , , , , , , , , , , , , , ,
-71.0966184475918,-99.646733254177,-28.5501148065852,-0.613609301220922,-141.090068905799,-170.296789153308,-198.961024961419,-125.669827994308,-104.441849702522,85.3716758508845,-21.2732518205032,-64.0984240303809, , , , , , , , , , , , , , , , , , , , , , , , , , , , , , , , , , , , , , , , , , , , , , , , , , , , , , , , , , , , ,
-70.1409517739854,-97.9941492014975,-27.8531974275121,0.151426440065134,-139.787004712521,-169.352938728553,-197.441956980581,-125.953142545077,-103.967400513811,84.0675504877416,-21.1438771732366,-62.9236733145047, , , , , , , , , , , , , , , , , , , , , , , , , , , , , , , , , , , , , , , , , , , , , , , , , , , , , , , , , , , , ,
-69.087151128676,-96.2391004937899,-27.1519493651139,0.935723560903707,-139.237079104101,-168.386793825875,-195.804974230032,-126.326807702944,-103.475633033734,82.6631258112331,-20.967600881781,-61.6955249294518, , , , , , , , , , , , , , , , , , , , , , , , , , , , , , , , , , , , , , , , , , , , , , , , , , , , , , , , , , , , ,
-67.9089552344565,-94.3539889378737,-26.4450337034172,1.7511614364399,-138.025420473731,-167.389574344663,-192.964513930412,-126.789392554713,-102.958042957675,81.1314720861653,-20.7319607655196,-60.3995113206453, , , , , , , , , , , , , , , , , , , , , , , , , , , , , , , , , , , , , , , , , , , , , , , , , , , , , , , , , , , , ,
-66.5791768629836,-92.308920188917,-25.7297433259333,2.61065704661459,-136.78542334981,-166.351298585675,-190.469903222395,-127.333024307632,-102.402901031145,79.4440485259504,-20.4247167685251,-59.019331757425, , , , , , , , , , , , , , , , , , , , , , , , , , , , , , , , , , , , , , , , , , , , , , , , , , , , , , , , , , , , ,
-65.0702055478953,-90.0728682342838,-25.0026626863884,4.15141851618679,-135.470779145173,-165.261198935622,-187.000354659745,-127.94476524926,-101.795772276021,77.5715368910897,-20.0337714307534,-57.5377654603359, , , , , , , , , , , , , , , , , , , , , , , , , , , , , , , , , , , , , , , , , , , , , , , , , , , , , , , , , , , , ,
-63.354594741926,-87.6150231622671,-24.2604284203411,5.13755607155892,-134.613581602418,-164.108252233656,-183.687766946996,-128.6084282484,-101.120353879287,75.4848089520967,-19.5470831607923,-55.937725791304, , , , , , , , , , , , , , , , , , , , , , , , , , , , , , , , , , , , , , , , , , , , , , , , , , , , , , , , , , , , ,
-61.4056401790504,-84.9061567584045,-23.500516579354,6.20365157526359,-134.123012082187,-162.881765299081,-181.556090799591,-129.30657760094,-100.359504172177,73.1558984687276,-18.9525617998481,-54.2033366688791, , , , , , , , , , , , , , , , , , , , , , , , , , , , , , , , , , , , , , , , , , , , , , , , , , , , , , , , , , , , ,
-59.1978869541623,-81.9198435175967,-22.7219565634345,7.38246545380875,-133.692008754029,-161.400587743545,-178.983694751246,-130.022488687394,-99.4963255957665,70.5588652358796,-18.2379651953638,-52.3209000405155, , , , , , , , , , , , , , , , , , , , , , , , , , , , , , , , , , , , , , , , , , , , , , , , , , , , , , , , , , , , ,
-56.7075895761928,-78.6334339914313,-21.9258444152384,9.22521121538633,-132.066445862754,-159.844456791688,-176.71273598539,-128.425048333958,-98.5151878199172,67.6705117838122,-17.3908725804771,-50.2796392033347, , , , , , , , , , , , , , , , , , , , , , , , , , , , , , , , , , , , , , , , , , , , , , , , , , , , , , , , , , , , ,
-53.9132418890754,-75.0287626087704,-21.1155207196949,10.778357818563,-130.177844615975,-158.246742097293,-173.841639908376,-128.867196385105,-97.4026201974637,64.4710022489231,-16.3988605846902,-48.0721416642325, , , , , , , , , , , , , , , , , , , , , , , , , , , , , , , , , , , , , , , , , , , , , , , , , , , , , , , , , , , , ,
-50.796339772244,-71.0926407616344,-20.2963009893903,13.0576837276138,-129.765420824953,-156.590674773957,-171.2200934059,-129.487217698244,-96.5502095758222,60.9444902669393,-15.2500193914268,-45.6944708755122, , , , , , , , , , , , , , , , , , , , , , , , , , , , , , , , , , , , , , , , , , , , , , , , , , , , , , , , , , , , ,
-47.3425109577573,-66.8172081388518,-19.4746971810945,14.6569690900152,-127.540946496567,-154.856539607937,-168.853507964709,-130.092322246634,-95.3140006191833,57.0798595483047,-13.9339068883313,-43.145952659973, , , , , , , , , , , , , , , , , , , , , , , , , , , , , , , , , , , , , , , , , , , , , , , , , , , , , , , , , , , , ,
-43.5430509668036,-62.2001876889499,-18.6571367221462,17.0407952064928,-125.711479816453,-153.021158434236,-166.740813165887,-130.684589055932,-94.1873447027363,52.8716193278769,-12.4429571223286,-40.4286622055479, , , , , , , , , , , , , , , , , , , , , , , , , , , , , , , , , , , , , , , , , , , , , , , , , , , , , , , , , , , , ,
-39.3967722406072,-57.2450253837196,-17.8482531431124,18.9519499855674,-124.068816542577,-151.057909428945,-164.873588478581,-131.270589451896,-92.7069529767152,48.3208988121635,-10.7742595487473,-37.5466392634159, , , , , , , , , , , , , , , , , , , , , , , , , , , , , , , , , , , , , , , , , , , , , , , , , , , , , , , , , , , , ,
-34.9119393664112,-51.960813589875,-17.0488742234637,21.3002459824512,-121.42513533524,-148.937291590245,-163.318059064891,-131.860549955214,-91.1149985800052,43.4363764781432,-8.93153257147368,-34.5048439066692, , , , , , , , , , , , , , , , , , , , , , , , , , , , , , , , , , , , , , , , , , , , , , , , , , , , , , , , , , , , ,
-30.1079620874294,-46.3618272447848,-16.2538651573553,23.3541572582861,-120.152865699632,-146.627934489217,-162.037180201586,-132.46698934992,-89.3378016797141,38.2348946661072,-6.92704846503694,-31.3078462010699, , , , , , , , , , , , , , , , , , , , , , , , , , , , , , , , , , , , , , , , , , , , , , , , , , , , , , , , , , , , ,
-25.0164860285566,-42.8920469882112,-17.8755609596545,25.7246349894689,-118.58383821436,-144.097881326558,-160.721720920419,-133.102850419105,-87.3595473814916,33.954266508384,-3.57046253445095,-30.3838039739327, , , , , , , , , , , , , , , , , , , , , , , , , , , , , , , , , , , , , , , , , , , , , , , , , , , , , , , , , , , , ,
-19.6815822101824,-42.8920469882112,-23.2104647780287,27.7643041162331,-118.284140644259,-141.315954936919,-159.543743395278,-133.779234468665,-85.2709301762278,31.2868145991969,1.76444128392324,-33.0512558831198, , , , , , , , , , , , , , , , , , , , , , , , , , , , , , , , , , , , , , , , , , , , , , , , , , , , , , , , , , , , ,
-14.1588818900082,-42.8920469882112,-28.7331650982029,30.2157792160288,-116.034336801612,-138.253050259789,-158.437478490061,-134.502963964293,-82.9855966163073,28.5254644391098,7.28714160409742,-35.8126060432069, , , , , , , , , , , , , , , , , , , , , , , , , , , , , , , , , , , , , , , , , , , , , , , , , , , , , , , , , , , , ,
-8.51369444809672,-42.8920469882112,-34.3783525401144,32.1192146275308,-113.409178168545,-134.883264097509,-157.324181517287,-135.274299961901,-80.5936817196432,25.7028707181541,12.9323290460089,-38.6351997641627, , , , , , , , , , , , , , , , , , , , , , , , , , , , , , , , , , , , , , , , , , , , , , , , , , , , , , , , , , , , ,
-2.81833384164685,-42.8920469882112,-40.0737131465643,34.6809500840712,-110.429287881716,-131.66512402006,-156.114180581048,-133.647781666932,-78.4669846889939,22.8551904149291,18.6276896524588,-41.4828800673876, , , , , , , , , , , , , , , , , , , , , , , , , , , , , , , , , , , , , , , , , , , , , , , , , , , , , , , , , , , , ,
2.85098475931516,-42.8920469882112,-45.7430317475263,36.4934097920708,-107.866746819236,-128.039231020242,-154.71016073056,-130.719181971441,-78.4669846889939,20.0205311144481,24.2970082534208,-44.3175393678686, , , , , , , , , , , , , , , , , , , , , , , , , , , , , , , , , , , , , , , , , , , , , , , , , , , , , , , , , , , , ,
8.41727573393717,-42.334265028421,-50.7515407623581,38.2844128166238,-104.032529886924,-124.128236300506,-153.011477860485,-127.688329391131,-78.4669846889939,16.958494647242,29.5844082481477,-46.5429028953894, , , , , , , , , , , , , , , , , , , , , , , , , , , , , , , , , , , , , , , , , , , , , , , , , , , , , , , , , , , , ,
13.8056127641445,-31.6495603593962,-45.4551731235407,40.1365055993814,-99.9713260594719,-120.174521525062,-151.307313078192,-124.545583574624,-75.6371313553839,8.92197379762597,29.6303929438427,-38.5523667414683, , , , , , , , , , , , , , , , , , , , , , , , , , , , , , , , , , , , , , , , , , , , , , , , , , , , , , , , , , , , ,
18.945490714411,-23.7204224699783,-42.6659131843893,42.0857776786107,-95.3128559512157,-115.281128881156,-148.880827403205,-121.282041127507,-72.1466914598773,2.38746587778375,30.8057019494003,-33.1931678271837, , , , , , , , , , , , , , , , , , , , , , , , , , , , , , , , , , , , , , , , , , , , , , , , , , , , , , , , , , , , ,
23.7727349514609,-15.6641234675826,-39.4368584190435,44.1742271758158,-90.2538651029466,-109.997634368017,-145.858917138136,-117.891276247648,-68.9618804074573,-4.05430574193902,31.6047966852523,-27.5504909433129, , , , , , , , , , , , , , , , , , , , , , , , , , , , , , , , , , , , , , , , , , , , , , , , , , , , , , , , , , , , ,
28.2311053266307,-6.96417775417491,-35.1952830808056,46.4474989086242,-85.295758835733,-104.78475531117,-142.224880567294,-114.371084500899,-65.7402950258743,-10.6334637862278,31.7131942037182,-21.0797304174901, , , , , , , , , , , , , , , , , , , , , , , , , , , , , , , , , , , , , , , , , , , , , , , , , , , , , , , , , , , , ,
32.273779536812,1.68121241465177,-30.5925671221602,48.9520098809147,-79.4925077964592,-99.6749216311537,-138.616771831937,-113.162381784855,-62.2241059565051,-16.9774959757318,31.4331733294862,-14.4556773537541, , , , , , , , , , , , , , , , , , , , , , , , , , , , , , , , , , , , , , , , , , , , , , , , , , , , , , , , , , , , ,
35.8648370415169,11.2967153797892,-24.5681216617276,51.7315472391634,-73.3605659459722,-93.4119358562694,-133.925040773243,-113.162381784855,-58.3864962307716,-23.5807762106529,30.2164793516223,-6.63570314096902, , , , , , , , , , , , , , , , , , , , , , , , , , , , , , , , , , , , , , , , , , , , , , , , , , , , , , , , , , , , ,
38.9807310867406,23.0361762210341,-15.9445548657064,54.8234510003411,-67.5032323891182,-86.9145536577435,-129.413387567672,-113.162381784855,-54.713553661854,-31.0084536538872,27.4626429762236,3.54581067766397, , , , , , , , , , , , , , , , , , , , , , , , , , , , , , , , , , , , , , , , , , , , , , , , , , , , , , , , , , , , ,
41.6115924163452,34.0528231692881,-7.55876924705706,58.254541550336,-61.0548733391847,-81.5227093101958,-124.903510909788,-113.162381784855,-50.6516815738589,-37.8322077928165,24.5851808317012,13.2470269611157, , , , , , , , , , , , , , , , , , , , , , , , , , , , , , , , , , , , , , , , , , , , , , , , , , , , , , , , , , , , ,
43.7621152153599,44.5165421228539,0.754426907494114,62.0370175215022,-54.2074565181526,-76.0369309557814,-119.547701227573,-110.458721493967,-46.1160576054171,-44.1393286691068,21.503844153933,22.6354845151742, , , , , , , , , , , , , , , , , , , , , , , , , , , , , , , , , , , , , , , , , , , , , , , , , , , , , , , , , , , , ,
45.451762753132,57.5021325142159,12.050369761084,66.1646266491676,-47.2379273548486,-69.0126910279424,-113.887563681017,-106.48225200469,-41.8671310218657,-51.4769476336738,16.7006964960241,34.7762511376501, , , , , , , , , , , , , , , , , , , , , , , , , , , , , , , , , , , , , , , , , , , , , , , , , , , , , , , , , , , , ,
46.7140877481108,67.7338908635522,21.0198031154415,70.6094892750628,-40.9389265044621,-61.9561295420386,-108.244336119195,-102.546049461695,-37.575758158785,-57.2239893058314,12.8471423163347,44.376846989497, , , , , , , , , , , , , , , , , , , , , , , , , , , , , , , , , , , , , , , , , , , , , , , , , , , , , , , , , , , , ,
47.5950668210712,80.0582314113601,32.463164590289,75.3200069773974,-33.9373535177825,-56.3459171028051,-102.278793884714,-98.6972866968463,-33.5295304173444,-63.8266491162155,7.56595111539115,56.2606980008247, , , , , , , , , , , , , , , , , , , , , , , , , , , , , , , , , , , , , , , , , , , , , , , , , , , , , , , , , , , , ,
48.0947225824017,90.9774265096755,42.8827039272738,80.2202814712894,-27.0319537081245,-49.3714292505218,-96.4401378746609,-94.9858008669712,-27.4797025326741,-69.5360745460385,2.60600932756403,66.9300652184748, , , , , , , , , , , , , , , , , , , , , , , , , , , , , , , , , , , , , , , , , , , , , , , , , , , , , , , , , , , , ,
48.1542671511481,101.367307483263,53.2130403321151,85.2113756267869,-21.1418106005972,-42.7719357629053,-91.2604628730703,-91.4626248177615,-23.3514607421613,-74.7607873172055,-2.52938659048346,77.2901739076893, , , , , , , , , , , , , , , , , , , , , , , , , , , , , , , , , , , , , , , , , , , , , , , , , , , , , , , , , , , , ,
48.2474591258144,111.161599868685,62.9141407428705,90.1745776091046,-14.6461269066116,-37.4056910345544,-86.172130055059,-88.1783073417005,-19.3923841631178,-79.7045294972495,-7.33334080852797,87.0378703057778, , , , , , , , , , , , , , , , , , , , , , , , , , , , , , , , , , , , , , , , , , , , , , , , , , , , , , , , , , , , ,
48.2047282194382,120.699435188827,72.4947069693884,94.9766230538049,-8.53582921986629,-31.126290099918,-80.8397252141797,-85.180967006469,-16.0508808036951,-84.4520817041323,-12.144989374975,96.5970710791076, , , , , , , , , , , , , , , , , , , , , , , , , , , , , , , , , , , , , , , , , , , , , , , , , , , , , , , , , , , , ,
48.0832493587251,132.518134655081,84.4348852963561,99.4766362760152,-3.1584412290764,-26.4047111563034,-76.256106497891,-82.5140457967695,-13.0153695670114,-90.300692006903,-18.1758179688154,108.476509975719, , , , , , , , , , , , , , , , , , , , , , , , , , , , , , , , , , , , , , , , , , , , , , , , , , , , , , , , , , , , ,
47.9309162960009,142.964665998352,95.0337497023514,103.534390705844,2.31258889716116,-21.1825832973141,-71.68967531191,-80.2137802760794,-10.2510501385596,-95.4477911471765,-23.5514167031752,118.999207850352, , , , , , , , , , , , , , , , , , , , , , , , , , , , , , , , , , , , , , , , , , , , , , , , , , , , , , , , , , , , ,
47.7834642756053,150.825966314549,103.042502038943,107.01935265464,7.39506472001398,-17.1274002984335,-67.5510441631301,-78.306483010585,-7.89020548126349,-99.3047152950768,-27.6295188816689,126.934234176746, , , , , , , , , , , , , , , , , , , , , , , , , , , , , , , , , , , , , , , , , , , , , , , , , , , , , , , , , , , , ,
47.6624852967572,157.39289343948,109.730408142723,109.819851034386,10.9281350909779,-13.3259451900661,-63.8862637782959,-76.8058093726245,-6.08835635641755,-102.527689368119,-31.0339614229829,133.561650791102, , , , , , , , , , , , , , , , , , , , , , , , , , , , , , , , , , , , , , , , , , , , , , , , , , , , , , , , , , , , ,
47.5744745983592,165.626459206566,118.051984608207,111.851620392016,15.1770044954887,-10.6218966328348,-60.580532469146,-75.7102569934946,-4.49752802319547,-106.600466902463,-35.2387550049238,141.839221907387, , , , , , , , , , , , , , , , , , , , , , , , , , , , , , , , , , , , , , , , , , , , , , , , , , , , , , , , , , , , ,
47.5109569419885,170.935593029635,123.424636087647,113.064922679287,19.255563020486,-7.28003643912444,-57.6372327852106,-75.0011927083515,-3.2655325290295,-109.223274985812,-37.9568395728292,147.180114558641, , , , , , , , , , , , , , , , , , , , , , , , , , , , , , , , , , , , , , , , , , , , , , , , , , , , , , , , , , , , ,
47.4496300289424,174.741595600873,127.291965571931,113.449486603559,23.1271944605735,-3.90846371267031,-55.1225859162604,-74.6417126090323,-2.67396259477091,-111.095612814908,-39.921167771494,151.016780586402, , , , , , , , , , , , , , , , , , , , , , , , , , , , , , , , , , , , , , , , , , , , , , , , , , , , , , , , , , , , ,
47.356348896304,179.125292784439,131.768943888135,113.036620131887,26.7683631654286,-0.523403909458295,-52.7063223243939,-74.5766093922702,-2.18280313497236,-113.240820840371,-42.2062974959155,155.447118336287, , , , , , , , , , , , , , , , , , , , , , , , , , , , , , , , , , , , , , , , , , , , , , , , , , , , , , , , , , , , ,
47.1876854917666,181.38005207668,134.192366584914,112.121428823136,30.5150441246525,1.57876880540169,-50.6476746467678,-74.7336515565507,-2.18200652240911,-114.283868784223,-43.5023405465736,157.786209330797, , , , , , , , , , , , , , , , , , , , , , , , , , , , , , , , , , , , , , , , , , , , , , , , , , , , , , , , , , , , ,
46.8937588898211,183.530147238914,136.636388349093,110.871664113864,34.3529047702883,5.03024564132073,-48.4166447624215,-75.026276196329,-2.25487898269735,-115.211953064367,-44.8713147296359,160.083267794004, , , , , , , , , , , , , , , , , , , , , , , , , , , , , , , , , , , , , , , , , , , , , , , , , , , , , , , , , , , , ,
46.421058275436,185.011648603179,138.590590327743,108.96592309944,37.3226436195012,8.97811766766739,-46.1387034380043,-75.3576639612088,-2.53330247672399,-115.716353439307,-46.0847660261534,161.801119465461, , , , , , , , , , , , , , , , , , , , , , , , , , , , , , , , , , , , , , , , , , , , , , , , , , , , , , , , , , , , ,
45.7150620217876,187.484328943938,141.769266922151,106.48209663298,41.6005002889434,11.9949769816237,-44.0011454626368,-75.6260133114156,-2.66717530545658,-116.599695482863,-48.0271024501814,164.626797933044, , , , , , , , , , , , , , , , , , , , , , , , , , , , , , , , , , , , , , , , , , , , , , , , , , , , , , , , , , , , ,
44.7225585151452,189.443563223871,144.721004708726,104.085243710618,46.1748972902012,15.1474056425424,-41.3784767803972,-75.730689770613,-2.68234664655843,-117.083060869508,-49.9992230967903,167.082283966299, , , , , , , , , , , , , , , , , , , , , , , , , , , , , , , , , , , , , , , , , , , , , , , , , , , , , , , , , , , , ,
43.3936606637143,193.107006209222,149.713345545508,101.505357326028,50.8960195572476,20.1144895347394,-38.4887336296837,-75.5788235659324,-2.69147556870134,-118.250333436468,-53.1598424408967,171.410175877365, , , , , , , , , , , , , , , , , , , , , , , , , , , , , , , , , , , , , , , , , , , , , , , , , , , , , , , , , , , , ,
41.6835552538241,196.187577401551,154.504022147727,99.3227447207506,55.7495709224265,25.4275710369076,-35.5230150827909,-75.0918752115549,-2.27800386987049,-118.935566327688,-56.4102334469516,175.34579977464, , , , , , , , , , , , , , , , , , , , , , , , , , , , , , , , , , , , , , , , , , , , , , , , , , , , , , , , , , , , ,
39.5540423944198,199.467005179109,159.912962784689,96.9332130411452,61.0025075861869,29.5329302406007,-32.0340752662158,-74.2116744655923,-1.71733215957666,-119.510523786764,-60.1794601951345,179.689983981899, , , , , , , , , , , , , , , , , , , , , , , , , , , , , , , , , , , , , , , , , , , , , , , , , , , , , , , , , , , , ,
36.9749163782489,203.572233048095,166.597316669846,94.6987438065063,65.9127627330839,33.7476395597141,-28.2781450408349,-72.9054552319394,-0.400386141341087,-120.273574713172,-64.8112001457983,185.08477485897, , , , , , , , , , , , , , , , , , , , , , , , , , , , , , , , , , , , , , , , , , , , , , , , , , , , , , , , , , , , ,
33.9252362515035,207.628472165428,173.703235913925,92.702611152832,70.90027197938,39.3530759380719,-24.5166259475277,-71.1694579116033,0.8850585846332,-120.776854208466,-69.8889998312105,190.665854039676, , , , , , , , , , , , , , , , , , , , , , , , , , , , , , , , , , , , , , , , , , , , , , , , , , , , , , , , , , , , ,
30.3945398067582,212.201244550609,181.806704743851,90.8925041530048,75.3823908153086,44.7004680502614,-20.4717231923734,-69.0307539396826,2.53373501418621,-121.297892178684,-75.7060824685464,197.00397464723, , , , , , , , , , , , , , , , , , , , , , , , , , , , , , , , , , , , , , , , , , , , , , , , , , , , , , , , , , , , ,
26.3840573958557,218.339472048463,191.955414652607,89.1680464222587,78.7248924886891,49.5588633501486,-16.4728101812113,-66.547061226448,4.51463185951569,-122.361764722159,-82.7856786283757,205.147443350535, , , , , , , , , , , , , , , , , , , , , , , , , , , , , , , , , , , , , , , , , , , , , , , , , , , , , , , , , , , , ,
21.9079617733445,225.421921334116,203.513959560771,87.3874487718536,81.2770070848142,53.63129485293,-12.8663453884377,-63.8044546649125,6.77512889040018,-123.66494155373,-90.8029988937133,214.467940447444, , , , , , , , , , , , , , , , , , , , , , , , , , , , , , , , , , , , , , , , , , , , , , , , , , , , , , , , , , , , ,
16.9946423772259,231.871283838687,214.876641461461,85.3773864091,82.3829784509617,56.7777378328248,-9.46731778123083,-60.9130231928693,9.24440263261697,-124.432963107956,-98.9409995421174,223.373962650074, , , , , , , , , , , , , , , , , , , , , , , , , , , , , , , , , , , , , , , , , , , , , , , , , , , , , , , , , , , , ,
11.6879350748165,239.5803407034,227.892405628583,82.9451557663184,81.4150054005104,58.7076968435621,-6.64600620704275,-58.0006764142654,11.8380494785856,-125.634137889108,-108.102235276883,233.736373165992, , , , , , , , , , , , , , , , , , , , , , , , , , , , , , , , , , , , , , , , , , , , , , , , , , , , , , , , , , , , ,
6.04819236810584,247.246132827409,241.197940459303,79.8920495812564,78.5200500226898,57.8594099137026,-4.78340804210396,-55.20545055724,14.4636270172553,-126.647162597757,-117.574874045599,244.222036643357, , , , , , , , , , , , , , , , , , , , , , , , , , , , , , , , , , , , , , , , , , , , , , , , , , , , , , , , , , , , ,
0.153052185642018,255.380426137003,255.227373951361,76.0268815819751,73.2392421793555,56.7698726994572,-3.64899957227894,-52.6667928798501,17.0267671014881,-127.766739161322,-127.53716088286,255.303900044182, , , , , , , , , , , , , , , , , , , , , , , , , , , , , , , , , , , , , , , , , , , , , , , , , , , , , , , , , , , , ,
-5.90224418431269,262.830279837152,268.732524021465,71.1786805307891,66.0293294689254,53.9711542396996,-3.58008729370707,-50.5164003293516,19.4374952781442,-128.464017826419,-137.317384102889,265.781401929308, , , , , , , , , , , , , , , , , , , , , , , , , , , , , , , , , , , , , , , , , , , , , , , , , , , , , , , , , , , , ,
-12.0051213468469,269.132199324464,281.13732067131,65.2077434167387,56.4397461699427,48.686238932911,-4.91838168247139,-48.8692388147801,21.6163881997119,-128.563538988808,-146.571221009079,275.134759997887, , , , , , , , , , , , , , , , , , , , , , , , , , , , , , , , , , , , , , , , , , , , , , , , , , , , , , , , , , , , ,
-18.0266316218345,275.229181254248,293.255812876083,58.0144631184447,44.1128813438748,41.7584340337291,-7.24262778693489,-47.8153692400679,23.5002039354107,-128.601274816207,-155.641222248959,284.242497065166, , , , , , , , , , , , , , , , , , , , , , , , , , , , , , , , , , , , , , , , , , , , , , , , , , , , , , , , , , , , ,
-23.8231851189976,281.162619156218,304.985804275216,49.5455851050152,29.5284734357691,33.7952871455545,-10.8010785172025,-47.4131633984998,25.0466265175564,-128.66971701861,-164.404494697107,293.074211715717, , , , , , , , , , , , , , , , , , , , , , , , , , , , , , , , , , , , , , , , , , , , , , , , , , , , , , , , , , , , ,
-29.2391193291006,285.779814801728,315.018934130829,39.7977587230006,13.5469010112471,24.333004445554,-15.6341885098189,-47.6844179640652,26.2377783438027,-128.270347736314,-172.129026729964,300.399374466278, , , , , , , , , , , , , , , , , , , , , , , , , , , , , , , , , , , , , , , , , , , , , , , , , , , , , , , , , , , , ,
-34.1101930759565,289.678081055692,323.788274131649,28.8184121569952,-4.00320115841015,13.1482019131585,-21.4820174207499,-48.6117680284092,27.1333242850759,-127.783943989868,-178.949233603803,306.733177593671, , , , , , , , , , , , , , , , , , , , , , , , , , , , , , , , , , , , , , , , , , , , , , , , , , , , , , , , , , , , ,
-38.2680751718586,294.584939530953,332.853014702811,16.7041068441819,-22.7091956495738,1.41314425623017,-28.2869517627645,-50.1386534558519,27.6660812076313,-128.158432179547,-185.560544937335,313.718977116882, , , , , , , , , , , , , , , , , , , , , , , , , , , , , , , , , , , , , , , , , , , , , , , , , , , , , , , , , , , , ,
-41.5458203476101,297.391617080057,338.937437427668,3.59663973990424,-42.1041493452115,-10.9954208655052,-36.0910599957224,-52.1719005513701,28.1478081655439,-127.922898366224,-190.241628887639,318.164527253863, , , , , , , , , , , , , , , , , , , , , , , , , , , , , , , , , , , , , , , , , , , , , , , , , , , , , , , , , , , , ,
-43.7842039373837,299.816491023911,343.600694961295,-10.3227329039924,-61.6878490325717,-24.541776761899,-44.2314298003674,-54.5867664099101,28.2582219986696,-128.016143543264,-193.692449449339,321.708592992603, , , , , , , , , , , , , , , , , , , , , , , , , , , , , , , , , , , , , , , , , , , , , , , , , , , , , , , , , , , , ,
-44.8386734036038,301.996750324526,346.83542372813,-24.8404989837586,-80.9494964016875,-37.2253584886292,-52.6947287582181,-57.234084316879,28.3219738889865,-128.579038460461,-195.837048565867,324.416087026328, , , , , , , , , , , , , , , , , , , , , , , , , , , , , , , , , , , , , , , , , , , , , , , , , , , , , , , , , , , , ,
-44.5865968610534,304.074640417263,348.661237278316,-39.7190462687131,-99.3908433099007,-49.5004973558744,-61.6337759445185,-59.9489732459497,28.3919074229793,-129.744021778104,-196.623917069685,326.367938847789, , , , , , , , , , , , , , , , , , , , , , , , , , , , , , , , , , , , , , , , , , , , , , , , , , , , , , , , , , , , ,
-42.7019780506255,306.184651772428,348.886629823053,-54.7053283511707,-116.548577879721,-62.1840877901309,-69.997520543177,-62.5604506418313,29.3462992833918,-131.741336860901,-195.794303936839,327.53564079774, , , , , , , , , , , , , , , , , , , , , , , , , , , , , , , , , , , , , , , , , , , , , , , , , , , , , , , , , , , , ,
-39.5919740583693,308.44197294134,348.03394699971,-69.5396644322189,-132.014841947205,-72.6507177323356,-77.9516230937065,-64.901228152873,29.804524486944,-134.424999441485,-193.812960529039,328.237959970525, , , , , , , , , , , , , , , , , , , , , , , , , , , , , , , , , , , , , , , , , , , , , , , , , , , , , , , , , , , , ,
-35.00787953376,310.93318979376,345.94106932752,-83.9643661287209,-145.454835740356,-81.8030738415096,-85.8046257092414,-66.8169855222441,30.7490800181219,-137.96265513,-190.47447443064,328.43712956064, , , , , , , , , , , , , , , , , , , , , , , , , , , , , , , , , , , , , , , , , , , , , , , , , , , , , , , , , , , , ,
-28.923533510128,313.709898639718,342.633432149847,-97.7319393247664,-156.620556835768,-89.9361337938663,-92.3337011205336,-68.1745084729132,31.9605780045449,-142.393182564795,-185.778482829987,328.171665394783, , , , , , , , , , , , , , , , , , , , , , , , , , , , , , , , , , , , , , , , , , , , , , , , , , , , , , , , , , , , ,
-21.5283707746137,316.785505545375,338.313876319989,-110.612643427363,-165.359862036325,-95.9408459270292,-97.9198264499795,-68.8682257561127,33.6400553595334,-147.62856738538,-179.921123547301,327.549690932682, , , , , , , , , , , , , , , , , , , , , , , , , , , , , , , , , , , , , , , , , , , , , , , , , , , , , , , , , , , , ,
-12.8931998464496,320.135087274608,333.028287121058,-122.969846550509,-171.620281464093,-100.798470157057,-103.132601929693,-68.8248647741361,35.8686622513402,-153.620943714079,-172.960743483754,326.581687197833, , , , , , , , , , , , , , , , , , , , , , , , , , , , , , , , , , , , , , , , , , , , , , , , , , , , , , , , , , , , ,
-3.19114369368533,323.697877695612,326.889021389297,-133.678601515302,-175.447382798663,-103.435718203884,-106.595699654687,-68.0061414732345,38.5446855820861,-160.253367000963,-165.040082541491,325.293449542454, , , , , , , , , , , , , , , , , , , , , , , , , , , , , , , , , , , , , , , , , , , , , , , , , , , , , , , , , , , , ,
7.36263632872936,327.381766770325,320.019130441596,-142.605156346314,-176.977951356768,-104.483769802585,-108.975569134702,-66.4095830381425,41.913930178505,-167.372201549527,-156.328247056433,323.700448605961, , , , , , , , , , , , , , , , , , , , , , , , , , , , , , , , , , , , , , , , , , , , , , , , , , , , , , , , , , , , ,
18.5177776075042,331.06915402385,312.551376416346,-150.20969144799,-176.428725592674,-104.441344215205,-110.520291491374,-64.0677219110871,45.5734540706488,-174.793465815677,-147.016799404421,321.810265220098, , , , , , , , , , , , , , , , , , , , , , , , , , , , , , , , , , , , , , , , , , , , , , , , , , , , , , , , , , , , ,
29.99757924929,334.623545220729,304.625965971439,-156.243424342966,-174.081786360377,-102.804770734668,-111.553922983139,-61.045974160048,49.5115502736388,-182.31056223501,-137.314193361075,319.624755596084, , , , , , , , , , , , , , , , , , , , , , , , , , , , , , , , , , , , , , , , , , , , , , , , , , , , , , , , , , , , ,
41.5094495851997,337.896375634924,296.386926049724,-160.20274494761,-170.267853242357,-100.165464100801,-111.148235963854,-57.4395203075833,54.0035393493122,-189.702912610062,-127.438738232262,317.141650842324, , , , , , , , , , , , , , , , , , , , , , , , , , , , , , , , , , , , , , , , , , , , , , , , , , , , , , , , , , , , ,
52.7563677062002,340.733659028808,287.977291322608,-162.992181561458,-165.348686561966,-96.8264420252427,-110.097165704176,-53.3694588331414,58.3699189723721,-196.745013367504,-117.610461808204,314.355475175708, , , , , , , , , , , , , , , , , , , , , , , , , , , , , , , , , , , , , , , , , , , , , , , , , , , , , , , , , , , , ,
63.4486976361119,342.982185858301,279.533488222189,-164.358955074784,-159.69960433921,-93.0042928674589,-109.599694388478,-48.9784279161927,63.2907910763042,-203.215441747206,-108.042395293038,311.257837040245, , , , , , , , , , , , , , , , , , , , , , , , , , , , , , , , , , , , , , , , , , , , , , , , , , , , , , , , , , , , ,
73.3156601871376,344.495111802372,271.179451615235,-164.316474718342,-153.692897040353,-89.1623025964782,-107.845085473106,-44.425811941961,67.6130709028298,-208.905385994755,-98.9318957140486,307.837281708804, , , , , , , , , , , , , , , , , , , , , , , , , , , , , , , , , , , , , , , , , , , , , , , , , , , , , , , , , , , , ,
82.1157922828899,345.136867426308,263.021075143418,-162.995058137519,-147.682719033603,-85.3051869557733,-106.058485576423,-39.8825812263812,71.7900333709659,-213.626329854599,-90.4526414302642,304.078971284863, , , , , , , , , , , , , , , , , , , , , , , , , , , , , , , , , , , , , , , , , , , , , , , , , , , , , , , , , , , , ,
89.6457930160697,344.787372246381,255.141579230312,-160.551053652017,-142.359413069314,-82.2116729194293,-104.818072228207,-35.5257704870587,75.5393215082012,-217.216582631225,-82.7478931071208,299.964475738346, , , , , , , , , , , , , , , , , , , , , , , , , , , , , , , , , , , , , , , , , , , , , , , , , , , , , , , , , , , , ,
95.7472654719772,343.345562122935,247.598296650958,-157.159498313249,-137.268239203507,-79.375426793085,-103.60439285617,-31.5325961119147,78.8025809252696,-219.546413797456,-75.9255155894904,295.471929386947, , , , , , , , , , , , , , , , , , , , , , , , , , , , , , , , , , , , , , , , , , , , , , , , , , , , , , , , , , , , ,
100.311019877836,340.732252072331,240.421232194495,-153.005852433036,-133.054783285468,-77.3760350474939,-102.966402769467,-28.07424765824,81.4539115739642,-220.521635975083,-70.0551061583296,290.576742133413, , , , , , , , , , , , , , , , , , , , , , , , , , , , , , , , , , , , , , , , , , , , , , , , , , , , , , , , , , , , ,
103.27880184159,336.892359728431,233.61355788684,-148.277258566465,-130.290563804791,-76.8595569040068,-103.702542709937,-25.3094573429153,83.3777709846607,-220.08558078501,-65.167378022625,285.252958807636, , , , , , , , , , , , , , , , , , , , , , , , , , , , , , , , , , , , , , , , , , , , , , , , , , , , , , , , , , , , ,
104.642525702888,331.796507084828,227.153981381941,-143.153848212022,-128.13866395216,-76.9854780448205,-104.653735033699,-23.3780354510991,84.4730314957798,-218.219516393858,-61.2557278395263,279.475244233385, , , , , , , , , , , , , , , , , , , , , , , , , , , , , , , , , , , , , , , , , , , , , , , , , , , , , , , , , , , , ,
104.441299721804,325.442009870364,221.00071014856,-137.800636869029,-127.143532915557,-78.3046941552466,-106.538573390032,-22.3946391277491,84.6569303477208,-214.941654796083,-58.2797052133781,273.221360009462, , , , , , , , , , , , , , , , , , , , , , , , , , , , , , , , , , , , , , , , , , , , , , , , , , , , , , , , , , , , ,
102.756703225891,317.853264928937,215.096561703046,-132.360504365279,-127.289463434074,-81.1074391533101,-109.58477554759,-22.4431044219414,83.8687324401581,-210.304984077414,-56.1699292385771,266.474913315991, , , , , , , , , , , , , , , , , , , , , , , , , , , , , , , , , , , , , , , , , , , , , , , , , , , , , , , , , , , , ,
99.7068929553938,309.081547110134,209.37465415474,-126.94867692238,-128.501758296821,-84.8190160214409,-113.374735732728,-23.5717148643293,82.0729012748919,-204.394220032764,-54.8338805996733,259.228100632437, , , , , , , , , , , , , , , , , , , , , , , , , , , , , , , , , , , , , , , , , , , , , , , , , , , , , , , , , , , , ,
95.4401539029329,299.204210833986,203.764056931053,-121.64903788631,-130.6524315516,-89.6279975251899,-118.033113659485,-25.7897986322869,79.2615670538532,-197.322182368459,-54.16195151406,251.48413388252, , , , , , , , , , , , , , , , , , , , , , , , , , , , , , , , , , , , , , , , , , , , , , , , , , , , , , , , , , , , ,
90.1284521278637,288.323261844656,198.194809716792,-116.512495892982,-133.568111249105,-96.0080797012268,-123.437562526088,-29.0660214305876,75.4560884872198,-189.225856986259,-54.0331787944641,243.259035780724, , , , , , , , , , , , , , , , , , , , , , , , , , , , , , , , , , , , , , , , , , , , , , , , , , , , , , , , , , , , ,
83.9613956350788,276.563249227572,192.601853592493,-111.557511520834,-137.039868007539,-102.585571225864,-129.422315518325,-33.328655542482,70.7075292801868,-180.262322431325,-54.320228978707,234.582551410032, , , , , , , , , , , , , , , , , , , , , , , , , , , , , , , , , , , , , , , , , , , , , , , , , , , , , , , , , , , , ,
77.1407975770425,264.068441855967,186.927644278925,-106.772716512008,-140.834569627011,-109.761570617314,-135.786637101478,-38.4679636574074,65.0959109221769,-170.604619716505,-54.8934233509409,225.498043067446, , , , , , , , , , , , , , , , , , , , , , , , , , , , , , , , , , , , , , , , , , , , , , , , , , , , , , , , , , , , ,
69.8758187380799,250.999279138706,181.123460400626,-102.121373822851,-144.707254589095,-117.77064856583,-142.305743237545,-44.3406721607721,58.728149439477,-160.437548938393,-55.623820831273,216.061369769666, , , , , , , , , , , , , , , , , , , , , , , , , , , , , , , , , , , , , , , , , , , , , , , , , , , , , , , , , , , , ,
62.3784941497483,237.528100442169,175.149606292421,-97.5472614915552,-148.413941082706,-125.460196681092,-150.141965006128,-50.7763553534942,51.7346279269845,-149.953297295959,-56.3855560713364,206.338853367296, , , , , , , , , , , , , , , , , , , , , , , , , , , , , , , , , , , , , , , , , , , , , , , , , , , , , , , , , , , , ,
54.8593523699216,223.834170264679,168.974817894757,-92.9814531596217,-151.724237283102,-134.296453113223,-156.265210591766,-57.5854174687106,44.2644147191387,-139.3467613173,-57.0577327624176,196.404494079718, , , , , , , , , , , , , , , , , , , , , , , , , , , , , , , , , , , , , , , , , , , , , , , , , , , , , , , , , , , , ,
47.5228303160431,210.098060821572,162.575230505529,-88.3494276364178,-154.433083590744,-141.56934316299,-161.857221070425,-64.5682337033672,36.4792388459593,-128.810445568807,-57.5262000947427,186.33664566355, , , , , , , , , , , , , , , , , , , , , , , , , , , , , , , , , , , , , , , , , , , , , , , , , , , , , , , , , , , , ,
40.5622759219997,196.495549032909,155.933273110909,-83.5779649188611,-156.370945144641,-148.321622119623,-168.326513209652,-71.5248924508182,28.5464903713494,-118.528912477454,-57.6854985944546,176.214411071909, , , , , , , , , , , , , , , , , , , , , , , , , , , , , , , , , , , , , , , , , , , , , , , , , , , , , , , , , , , , ,
34.1544993228576,183.191312519339,149.036813196482,-78.6013653781546,-157.411811968616,-154.385671926229,-172.337576179811,-78.2648861952771,20.6316931328677,-108.672905921098,-57.441156936812,166.114062857911, , , , , , , , , , , , , , , , , , , , , , , , , , , , , , , , , , , , , , , , , , , , , , , , , , , , , , , , , , , , ,
28.4540342630366,170.332821928132,141.878787665096,-73.366650487691,-157.478490535076,-159.634386324911,-175.390310895065,-84.6160613826514,12.891038624292,-99.3934280955842,-56.7123767010294,156.105804796614, , , , , , , , , , , , , , , , , , , , , , , , , , , , , , , , , , , , , , , , , , , , , , , , , , , , , , , , , , , , ,
23.5874439381584,158.044877963071,134.457434024913,-67.837547360849,-156.859403349521,-163.986145041686,-178.124417072417,-90.4321900338268,5.46460827397372,-90.8161609506145,-55.434995043377,146.251155993992, , , , , , , , , , , , , , , , , , , , , , , , , , , , , , , , , , , , , , , , , , , , , , , , , , , , , , , , , , , , ,
19.6481075492588,146.425214377553,126.777106828294,-61.9971937648834,-154.994804459278,-167.406842084887,-179.196444974968,-95.5986742962045,-1.52917752554221,-83.0366609634057,-53.5644996395176,136.601160602924, , , , , , , , , , , , , , , , , , , , , , , , , , , , , , , , , , , , , , , , , , , , , , , , , , , , , , , , , , , , ,
16.6919468546927,135.541500747588,118.849553892895,-55.8495965297111,-152.856724424868,-169.908992562615,-179.356085080031,-100.036108458343,-7.99752722513024,-76.1167238011402,-51.0788035191012,127.195527320242, , , , , , , , , , , , , , , , , , , , , , , , , , , , , , , , , , , , , , , , , , , , , , , , , , , , , , , , , , , , ,
14.7345104180965,125.429960818578,110.695450400481,-48.6298607831309,-149.901072303638,-171.548199339446,-179.825430695841,-103.701647215052,-13.8755123596718,-70.082235618337,-47.9804699911923,118.06270560953, , , , , , , , , , , , , , , , , , , , , , , , , , , , , , , , , , , , , , , , , , , , , , , , , , , , , , , , , , , , ,
13.7497530780883,116.095695849567,102.345942771479,-40.7249735503872,-145.646899840238,-172.417425338252,-178.550106428634,-106.588314611402,-19.1265902226157,-64.9227244638277,-44.2980948466953,109.220819310523, , , , , , , , , , , , , , , , , , , , , , , , , , , , , , , , , , , , , , , , , , , , , , , , , , , , , , , , , , , , ,
13.6707553596172,107.514680016036,93.8439246564188,-32.7812970425374,-140.91561783691,-172.639593868979,-176.816911589263,-108.722510691245,-23.7415557576984,-60.5927176878265,-40.0865846484007,100.679302336228, , , , , , , , , , , , , , , , , , , , , , , , , , , , , , , , , , , , , , , , , , , , , , , , , , , , , , , , , , , , ,
14.3925297935647,99.637282187393,85.2447523938283,-24.8846389987081,-136.490087139592,-172.359063926092,-174.821600356998,-110.160037324606,-27.7361401270316,-57.0149059904787,-35.4261113001317,92.4410172906108, , , , , , , , , , , , , , , , , , , , , , , , , , , , , , , , , , , , , , , , , , , , , , , , , , , , , , , , , , , , ,
15.7769410117586,92.3930640440789,76.6161230323203,-17.7188280276747,-131.36379446538,-171.732529423507,-174.303541795358,-110.980991914877,-31.1475275760224,-54.0850025279186,-30.4195910102807,84.5045935381997, , , , , , , , , , , , , , , , , , , , , , , , , , , , , , , , , , , , , , , , , , , , , , , , , , , , , , , , , , , , ,
17.6596019354233,85.6965031786814,68.0369012432582,-10.8399084850202,-126.319580650072,-170.919876834112,-174.680485613358,-111.283886502323,-34.0301029189962,-51.6780525570522,-25.1886496539174,76.8667022109699, , , , , , , , , , , , , , , , , , , , , , , , , , , , , , , , , , , , , , , , , , , , , , , , , , , , , , , , , , , , ,
19.8584044144308,79.4531954669206,59.5947910524899,-3.66643254312251,-122.08486105885,-170.07550046769,-175.215641129383,-111.179349020576,-36.4507654243454,-49.6557999406756,-19.8681933190295,69.5239932597054, , , , , , , , , , , , , , , , , , , , , , , , , , , , , , , , , , , , , , , , , , , , , , , , , , , , , , , , , , , , ,
22.1831410974213,73.5660291631123,51.382888065691,3.36276996941941,-117.695293156425,-169.340520507624,-175.812396231869,-110.783754827538,-38.4841425477634,-47.8745851302667,-14.5998734841347,62.4744586144017, , , , , , , , , , , , , , , , , , , , , , , , , , , , , , , , , , , , , , , , , , , , , , , , , , , , , , , , , , , , ,
24.4455306038901,67.9408309576468,43.4953003537568,9.66850747957013,-113.828081898656,-168.836281817689,-176.372784198383,-110.213118056042,-40.2080044963837,-46.1931807807683,-9.52488487493327,55.7180656557019, , , , , , , , , , , , , , , , , , , , , , , , , , , , , , , , , , , , , , , , , , , , , , , , , , , , , , , , , , , , ,
26.4689073257884,62.4910818748906,36.0221745491023,15.3304175271236,-111.094038931709,-168.659430709826,-180.847745683649,-109.577537684785,-41.6991235311194,-44.4799946003394,-4.77663361165686,49.2566282119966, , , , , , , , , , , , , , , , , , , , , , , , , , , , , , , , , , , , , , , , , , , , , , , , , , , , , , , , , , , , ,
28.0968854743198,58.3370976751969,30.2402122008772,20.763932408749,-108.500262816945,-168.878766000872,-182.192659676269,-108.976436211175,-43.0297551654038,-43.2169915747582,-1.07166336327863,44.2886549380372, , , , , , , , , , , , , , , , , , , , , , , , , , , , , , , , , , , , , , , , , , , , , , , , , , , , , , , , , , , , ,
29.2004242275963,53.2097922282417,24.0093680006454,25.5768629619896,-106.587776087088,-169.533941590785,-184.221373985186,-108.494754186072,-44.2648586865403,-41.2051082279189,2.59552811347554,38.6095801144437, , , , , , , , , , , , , , , , , , , , , , , , , , , , , , , , , , , , , , , , , , , , , , , , , , , , , , , , , , , , ,
29.682861688723,48.030336006808,18.3474743180851,29.7884570420957,-105.836131715535,-170.635976235872,-185.562323619955,-108.200191187503,-45.4601293935694,-38.8565988477654,5.66769368531901,33.1889051624467, , , , , , , , , , , , , , , , , , , , , , , , , , , , , , , , , , , , , , , , , , , , , , , , , , , , , , , , , , , , ,
29.4826322616447,42.6692246529053,13.1865923912607,32.7998323001297,-105.213615349689,-172.169418393956,-187.262899206878,-108.141532479144,-46.6608777153774,-36.0759284572749,8.1480199351921,27.9279085220831, , , , , , , , , , , , , , , , , , , , , , , , , , , , , , , , , , , , , , , , , , , , , , , , , , , , , , , , , , , , ,
28.5735559081331,38.60435005674,10.030794148607,35.1816112984813,-105.147597995633,-174.095923219259,-189.205464831036,-108.348071124535,-47.9017462763412,-33.5889529824364,9.27138087976311,24.3175721026737, , , , , , , , , , , , , , , , , , , , , , , , , , , , , , , , , , , , , , , , , , , , , , , , , , , , , , , , , , , , ,
26.9627999275551,33.1175699281478,6.15477000059274,36.9616985275358,-106.023245956219,-176.358921583588,-191.261141638761,-108.830108491254,-49.20719727831,-30.0401849278513,10.4040149634812,19.6361699643704, , , , , , , , , , , , , , , , , , , , , , , , , , , , , , , , , , , , , , , , , , , , , , , , , , , , , , , , , , , , ,
24.6868290639799,28.1616195078145,3.47479044383464,38.1824686823125,-106.807920653783,-178.889000008067,-193.299377621176,-109.580470463243,-50.5926358044263,-26.4242242858971,10.6060193100727,15.8182049758247, , , , , , , , , , , , , , , , , , , , , , , , , , , , , , , , , , , , , , , , , , , , , , , , , , , , , , , , , , , , ,
21.805825927875,23.1549598181273,1.34913389025234,38.8971366332988,-107.872731444882,-181.609573151324,-195.19722123802,-110.576905958999,-52.0659744991128,-22.480392873001,10.2283460188114,12.2520468541899, , , , , , , , , , , , , , , , , , , , , , , , , , , , , , , , , , , , , , , , , , , , , , , , , , , , , , , , , , , , ,
18.3971576417068,17.5117366396078,-0.885421002098958,39.16578820703,-109.401928779277,-184.442423630676,-196.847698107496,-111.78515194805,-53.6294061528487,-17.9544471406571,9.64128932190294,8.31315781875454, , , , , , , , , , , , , , , , , , , , , , , , , , , , , , , , , , , , , , , , , , , , , , , , , , , , , , , , , , , , ,
14.5484884385982,12.4712301916145,-2.07725824698367,39.051397276038,-110.749741527684,-187.312715049718,-198.166754814054,-113.162381784855,-55.2811453934201,-13.5098593151062,8.31287334279101,5.19698597231555, , , , , , , , , , , , , , , , , , , , , , , , , , , , , , , , , , , , , , , , , , , , , , , , , , , , , , , , , , , , ,
10.3510956379434,7.18513013485244,-3.1659655030909,38.6161410029071,-112.2908526803,-189.651172865792,-199.098323816717,-114.660726513764,-57.016935471429,-8.76811288639779,6.75853057051721,2.00958231588091, , , , , , , , , , , , , , , , , , , , , , , , , , , , , , , , , , , , , , , , , , , , , , , , , , , , , , , , , , , , ,
5.89384846921819,1.49115138401816,-4.40269708519998,37.9182780387254,-113.629968999323,-192.413652529493,-199.617192486627,-116.230579822563,-58.8311846026447,-3.69249992661805,5.14827277720916,-1.45577285059077, , , , , , , , , , , , , , , , , , , , , , , , , , , , , , , , , , , , , , , , , , , , , , , , , , , , , , , , , , , , ,
1.25818580665662,-3.33229044867517,-4.59047625533174,37.0097824370807,-114.896837372087,-195.037176158669,-199.729537429928,-117.82345699706,-60.7176800042407,1.0370523210094,2.92433103099426,-3.96138335200332, , , , , , , , , , , , , , , , , , , , , , , , , , , , , , , , , , , , , , , , , , , , , , , , , , , , , , , , , , , , ,
-1.67513022182772,-9.04310771698716,-7.36797749515939,35.9348443984181,-116.505365866791,-197.499781370939,-199.471192214637,-119.394263130522,-62.6699058171405,5.35911896940756,2.84642363666591,-8.20554260607313, , , , , , , , , , , , , , , , , , , , , , , , , , , , , , , , , , , , , , , , , , , , , , , , , , , , , , , , , , , , ,
-6.47068101968177,-14.033005622633,-7.56232460295121,34.7292689331498,-117.583853374354,-199.80425591417,-198.903913465205,-120.902923870237,-64.681048224825,10.2518433211575,0.545821791634799,-10.797665112792, , , , , , , , , , , , , , , , , , , , , , , , , , , , , , , , , , , , , , , , , , , , , , , , , , , , , , , , , , , , ,
-9.93920539893822,-19.7926578080535,-9.85345240911523,33.4207290664526,-118.579544115407,-201.906031577202,-198.110069176425,-122.315424810912,-66.743801623661,14.865931603496,-0.04287649491142,-14.8230551085842, , , , , , , , , , , , , , , , , , , , , , , , , , , , , , , , , , , , , , , , , , , , , , , , , , , , , , , , , , , , ,
-13.911227292449,-25.124311355941,-11.2130840634919,32.0297625895498,-119.948609324666,-203.830804006069,-197.186285120485,-123.604369937753,-68.8500989003068,19.5177693241952,-1.34907161447848,-18.1686977097163, , , , , , , , , , , , , , , , , , , , , , , , , , , , , , , , , , , , , , , , , , , , , , , , , , , , , , , , , , , , ,
-18.6670643287228,-30.8346908369904,-12.1676265082675,30.5713435543653,-120.862889844735,-205.643483547324,-196.236647744253,-124.749193631482,-70.9908858919666,24.7508775828567,-3.24971891022757,-21.5011586726288, , , , , , , , , , , , , , , , , , , , , , , , , , , , , , , , , , , , , , , , , , , , , , , , , , , , , , , , , , , , ,
-23.0262231182692,-36.7566511283135,-13.7304280100442,29.056815372925,-121.791080088712,-207.262180815701,-195.366067966598,-125.736153845949,-73.1560483216655,29.8914371232915,-4.64789755411244,-25.2435395691787, , , , , , , , , , , , , , , , , , , , , , , , , , , , , , , , , , , , , , , , , , , , , , , , , , , , , , , , , , , , ,
-27.5190518312853,-42.2244398648813,-14.705388033596,27.4959440581561,-123.21282784994,-208.760405092831,-192.543833207187,-126.558213148898,-75.3345764469318,34.8717458480834,-6.40683189884454,-28.4649139492385, , , , , , , , , , , , , , , , , , , , , , , , , , , , , , , , , , , , , , , , , , , , , , , , , , , , , , , , , , , , ,
-31.1066338018732,-48.2705714185327,-17.1639376166594,25.898842142042,-124.275316693634,-210.258208372199,-186.136089393528,-127.214886507111,-77.5150166556621,39.6886026102031,-6.97134809260684,-32.7172545175959, , , , , , , , , , , , , , , , , , , , , , , , , , , , , , , , , , , , , , , , , , , , , , , , , , , , , , , , , , , , ,
-34.8912840563551,-53.9166208838751,-19.0253368275199,24.2775338618738,-125.444259872246,-211.582622791375,-184.209884334796,-127.712095403005,-79.6862112877967,44.4039524701152,-7.93297361441751,-36.4709788556974, , , , , , , , , , , , , , , , , , , , , , , , , , , , , , , , , , , , , , , , , , , , , , , , , , , , , , , , , , , , ,
-39.5181450854526,-60.0198123461623,-20.5016672607097,22.646983609695,-127.178633976976,-212.848163943275,-180.022055510548,-128.062013179207,-81.8382708426876,49.7689787158076,-9.50823891237133,-40.2607398034359, , , , , , , , , , , , , , , , , , , , , , , , , , , , , , , , , , , , , , , , , , , , , , , , , , , , , , , , , , , , ,
-41.4090796878523,-65.7134590231137,-24.3043793352614,21.0254823268952,-128.606795993605,-214.222067026475,-179.257273727826,-128.282826574987,-83.9636649258005,53.5612693554831,-8.55235017629537,-45.0089191791874, , , , , , , , , , , , , , , , , , , , , , , , , , , , , , , , , , , , , , , , , , , , , , , , , , , , , , , , , , , , ,
-45.9447484316655,-71.7298211535744,-25.7850727219089,19.4343614781827,-130.107544239822,-215.403423694253,-182.055594019549,-128.398297420026,-86.0582764278867,58.8372847926201,-10.0798378548782,-48.7574469377416, , , , , , , , , , , , , , , , , , , , , , , , , , , , , , , , , , , , , , , , , , , , , , , , , , , , , , , , , , , , ,
-50.5198858069421,-77.275566209694,-26.7556804027519,17.897067283383,-131.676848648044,-216.549919622888,-183.798766038656,-128.43700657598,-88.1222530206515,63.8977260083182,-11.882102702095,-52.0156233062228, , , , , , , , , , , , , , , , , , , , , , , , , , , , , , , , , , , , , , , , , , , , , , , , , , , , , , , , , , , , ,
-54.9871938583513,-83.0186043694641,-28.0314105111128,16.4376770482595,-133.802003214866,-217.832505048939,-186.442048252353,-128.431198957669,-90.1605120227889,69.0028991139078,-13.4778916736192,-55.5250074402883, , , , , , , , , , , , , , , , , , , , , , , , , , , , , , , , , , , , , , , , , , , , , , , , , , , , , , , , , , , , ,
-57.6733280867239,-88.5292380734884,-30.8559099867645,15.0789811366329,-135.376708020758,-218.905804233946,-191.031378381581,-128.415206610638,-92.1827945066626,73.1012830801063,-13.4087090499796,-59.6925740301263, , , , , , , , , , , , , , , , , , , , , , , , , , , , , , , , , , , , , , , , , , , , , , , , , , , , , , , , , , , , ,
-60.9344397752416,-93.5173466551719,-32.5829068799302,13.8402953541081,-136.877027676209,-219.937723960184,-194.362499330047,-128.423487348916,-94.2032055609282,77.2258932152069,-14.1757664476556,-63.0501267675509, , , , , , , , , , , , , , , , , , , , , , , , , , , , , , , , , , , , , , , , , , , , , , , , , , , , , , , , , , , , ,
-65.3012868280051,-98.5770016690281,-33.2757148410229,12.7352098590055,-138.861422539693,-220.925799820368,-199.840715952583,-128.488368062657,-96.2392152706136,81.9391442485167,-16.012785993491,-65.9263582550253, , , , , , , , , , , , , , , , , , , , , , , , , , , , , , , , , , , , , , , , , , , , , , , , , , , , , , , , , , , , ,
-68.9237926776323,-103.02724492697,-34.1034522493372,11.7695127345271,-140.066391597865,-221.870093534214,-203.659640330349,-128.63762273191,-98.3101367741404,85.9755188023011,-17.4101702141475,-68.5653485881533, , , , , , , , , , , , , , , , , , , , , , , , , , , , , , , , , , , , , , , , , , , , , , , , , , , , , , , , , , , , ,
-72.0502716259126,-107.624978504995,-35.5747068790828,10.9395347194765,-141.068276432492,-222.774463461086,-207.731950704945,-128.892046117574,-100.435147924562,89.8376250654541,-18.2377823734148,-71.5998426920389, , , , , , , , , , , , , , , , , , , , , , , , , , , , , , , , , , , , , , , , , , , , , , , , , , , , , , , , , , , , ,
-75.3159066170516,-111.652672651846,-36.3367660347943,10.2311386307232,-142.388606420446,-223.64740284869,-212.246666931854,-129.263198709037,-102.63097173828,93.4842896344489,-19.4895702911285,-73.99471934332, , , , , , , , , , , , , , , , , , , , , , , , , , , , , , , , , , , , , , , , , , , , , , , , , , , , , , , , , , , , ,
-78.853483757971,-115.984302731606,-37.1308189736352,9.61952627103662,-143.126155707447,-224.502352616582,-218.16744034324,-129.751488919835,-104.90936651447,97.4188932447887,-20.8613323921678,-76.5575608526206, , , , , , , , , , , , , , , , , , , , , , , , , , , , , , , , , , , , , , , , , , , , , , , , , , , , , , , , , , , , ,
-82.9557976259617,-119.849647113401,-36.8938494874389,9.06996564263644,-143.48562531443,-225.35744148518,-222.50730952701,-130.34473162482,-107.274604190802,101.402722369681,-23.0309740692613,-78.3717483004196, , , , , , , , , , , , , , , , , , , , , , , , , , , , , , , , , , , , , , , , , , , , , , , , , , , , , , , , , , , , ,
-83.828141432312,-124.268079114049,-40.4399376817374,8.53945959538654,-143.683538295816,-226.234653806982,-227.523407843766,-131.017300460779,-109.721150397017,104.048110273181,-21.6941018752872,-82.3540083978933, , , , , , , , , , , , , , , , , , , , , , , , , , , , , , , , , , , , , , , , , , , , , , , , , , , , , , , , , , , , ,
-86.3674008792592,-128.355694050574,-41.9882931713145,7.9792911225314,-144.624402252409,-227.158478742475,-232.124811083419,-131.729992636282,-112.231804381447,107.361547464917,-22.1895538539723,-85.1719936109439, , , , , , , , , , , , , , , , , , , , , , , , , , , , , , , , , , , , , , , , , , , , , , , , , , , , , , , , , , , , ,
-90.4824280153587,-133.290835585024,-42.8084075696653,7.33830053966866,-144.684183397886,-228.154150364855,-237.783696614314,-132.430745305408,-114.776593078464,111.886631800192,-23.8370102228466,-88.0496215773445, , , , , , , , , , , , , , , , , , , , , , , , , , , , , , , , , , , , , , , , , , , , , , , , , , , , , , , , , , , , ,
-91.5772168435172,-138.003282020524,-46.4260651770072,6.56668619776982,-144.791367697448,-229.245634422154,-243.27075145149,-133.056362101708,-117.312717460008,114.790249432021,-22.5755758332549,-92.2146735987657, , , , , , , , , , , , , , , , , , , , , , , , , , , , , , , , , , , , , , , , , , , , , , , , , , , , , , , , , , , , ,
-94.0091187230549,-143.836457779559,-49.8273390565042,5.62008003329103,-145.036213053678,-230.453538052144,-246.608235618821,-133.535408202054,-119.785810858757,118.922788251307,-22.0908898332752,-96.8318984180316, , , , , , , , , , , , , , , , , , , , , , , , , , , , , , , , , , , , , , , , , , , , , , , , , , , , , , , , , , , , ,
-97.1246146283841,-149.457526553017,-52.3329119246329,4.46363721850795,-145.489543288298,-231.793102376245,-249.373543465596,-133.792398408214,-122.132690873004,123.291070590701,-22.3958513518755,-100.895219238825, , , , , , , , , , , , , , , , , , , , , , , , , , , , , , , , , , , , , , , , , , , , , , , , , , , , , , , , , , , , ,
-99.6363914857844,-156.384107583811,-56.7477160980265,3.07589993968062,-147.220371382255,-233.272381281102,-251.218649488817,-133.753322858353,-124.285671126386,128.010249534798,-21.4443376938789,-106.565911840919, , , , , , , , , , , , , , , , , , , , , , , , , , , , , , , , , , , , , , , , , , , , , , , , , , , , , , , , , , , , ,
-102.594080987166,-163.144644436842,-60.5505634496759,1.45224533482437,-148.29975621622,-234.890620181942,-253.419788792151,-133.352423092947,-126.178346172593,132.869362712004,-21.021758768745,-111.847603943259, , , , , , , , , , , , , , , , , , , , , , , , , , , , , , , , , , , , , , , , , , , , , , , , , , , , , , , , , , , , ,
-105.237854565084,-170.873176097412,-65.6353215323287,-0.392210104133401,-149.748339270246,-236.636747592732,-255.123356073693,-132.539957122545,-127.752581952301,138.055515331248,-19.8012665163774,-118.25424881487, , , , , , , , , , , , , , , , , , , , , , , , , , , , , , , , , , , , , , , , , , , , , , , , , , , , , , , , , , , , ,
-107.649994627879,-179.148828856119,-71.4988342282401,-2.42032634405851,-152.719804170642,-238.487812087017,-257.460338908882,-131.290503340962,-128.966264444215,143.399411741999,-18.0755801998193,-125.323831542179, , , , , , , , , , , , , , , , , , , , , , , , , , , , , , , , , , , , , , , , , , , , , , , , , , , , , , , , , , , , ,
-111.619727491334,-186.696188878616,-75.0764613872824,-4.5713313787991,-154.856009985259,-240.40716642309,-257.544415146346,-129.611185312373,-129.801217686897,149.157958184975,-18.2716330520256,-130.886325132949, , , , , , , , , , , , , , , , , , , , , , , , , , , , , , , , , , , , , , , , , , , , , , , , , , , , , , , , , , , , ,
-114.269051342106,-195.070095743869,-80.8010444017631,-6.75995747673372,-157.22469491489,-242.344050727141,-256.185602963719,-127.54908107782,-130.270620748534,154.669573542988,-16.7340034701713,-137.935570072816, , , , , , , , , , , , , , , , , , , , , , , , , , , , , , , , , , , , , , , , , , , , , , , , , , , , , , , , , , , , ,
-117.300104052849,-203.3556780251,-86.0555739722512,-8.87642583624941,-159.684583477875,-244.22352757023,-255.724156485149,-125.197023491308,-130.425227038383,160.327891038975,-15.6222650402988,-144.705625998676, , , , , , , , , , , , , , , , , , , , , , , , , , , , , , , , , , , , , , , , , , , , , , , , , , , , , , , , , , , , ,
-120.333960127519,-209.968702279397,-89.6347421518777,-10.7874172216281,-162.038390015337,-246.000399188819,-253.342908095643,-122.69700192335,-130.357702448389,165.151331203458,-15.3496089878207,-149.801722215637, , , , , , , , , , , , , , , , , , , , , , , , , , , , , , , , , , , , , , , , , , , , , , , , , , , , , , , , , , , , ,
-123.930364368355,-217.104374389292,-93.1740100209364,-12.3381829947793,-164.029824194811,-247.462893855254,-250.584069402766,-120.240436501665,-130.278313046901,170.517369378824,-15.3781771737093,-155.139192205114, , , , , , , , , , , , , , , , , , , , , , , , , , , , , , , , , , , , , , , , , , , , , , , , , , , , , , , , , , , , ,
-127.458731917036,-221.872967947145,-94.4142360301086,-13.3559460355374,-165.342168455165,-248.508107753908,-247.554262142725,-118.064706337965,-130.218162384388,174.66584993209,-16.5222479434636,-158.143601988626, , , , , , , , , , , , , , , , , , , , , , , , , , , , , , , , , , , , , , , , , , , , , , , , , , , , , , , , , , , , ,
-130.591714234357,-226.860226494922,-96.2685122605645,-13.6547139908929,-165.598673535406,-248.952475972778,-244.366662912075,-116.445460522763,-130.4675815797,178.725970364639,-17.1616009868961,-161.564369377743, , , , , , , , , , , , , , , , , , , , , , , , , , , , , , , , , , , , , , , , , , , , , , , , , , , , , , , , , , , , ,
-130.419314271073,-228.837663093371,-98.4183488222974,-13.0415784983962,-164.365057157662,-248.573867402802,-241.134120726108,-115.684417310072,-131.271906236284,179.628488682222,-16.0004827243878,-163.628005957834, , , , , , , , , , , , , , , , , , , , , , , , , , , , , , , , , , , , , , , , , , , , , , , , , , , , , , , , , , , , ,
-130.6923893751,-230.847556975143,-100.155167600043,-11.3245061959578,-161.154432466516,-247.107853246397,-237.960752215056,-116.092568926912,-132.892565589691,180.769973175122,-15.2686108875282,-165.501362287593, , , , , , , , , , , , , , , , , , , , , , , , , , , , , , , , , , , , , , , , , , , , , , , , , , , , , , , , , , , , ,
-134.955780106643,-230.566340425519,-95.6105603188754,-8.32154374752114,-155.435024573957,-244.244875220693,-234.931816698904,-117.968966476814,-135.590345688154,182.761060266081,-19.6726098938838,-163.088450372197, , , , , , , , , , , , , , , , , , , , , , , , , , , , , , , , , , , , , , , , , , , , , , , , , , , , , , , , , , , , ,
-137.591879984261,-223.051220146141,-85.4593401618805,-3.87126073459709,-146.641040652736,-239.628816370546,-232.101743445271,-121.57555603273,-139.605069544356,180.321550065201,-26.0662699111899,-154.255280154011, , , , , , , , , , , , , , , , , , , , , , , , , , , , , , , , , , , , , , , , , , , , , , , , , , , , , , , , , , , , ,
-139.808059146563,-213.847438910361,-74.0393797637988,2.15585754459934,-134.187030736189,-232.857543151236,-229.480375621286,-127.10885308112,-145.132359577325,176.827749028462,-32.8843396913818,-143.94340933708, , , , , , , , , , , , , , , , , , , , , , , , , , , , , , , , , , , , , , , , , , , , , , , , , , , , , , , , , , , , ,
-142.775028927857,-207.627640095296,-64.8526111674388,9.84547356373374,-117.486009301133,-223.486041122824,-227.01779058911,-134.669559699934,-152.298429667032,175.201334511577,-38.9612088802091,-136.240125631367, , , , , , , , , , , , , , , , , , , , , , , , , , , , , , , , , , , , , , , , , , , , , , , , , , , , , , , , , , , , ,
-146.437800993848,-196.937726516908,-50.4999255230597,19.2274360854941,-95.9715013537067,-211.032804348077,-224.588406851952,-144.231536066539,-161.134106142781,171.687763755378,-47.9689377353942,-123.718826019984, , , , , , , , , , , , , , , , , , , , , , , , , , , , , , , , , , , , , , , , , , , , , , , , , , , , , , , , , , , , ,
-150.651547740932,-183.684565144476,-33.0330174035436,30.2644086446985,-69.1235277823284,-194.990148748145,-221.975439295715,-155.611818297068,-171.549488859058,167.168056442704,-58.8092651686941,-108.358791274009, , , , , , , , , , , , , , , , , , , , , , , , , , , , , , , , , , , , , , , , , , , , , , , , , , , , , , , , , , , , ,
-155.167278570177,-169.703453179239,-14.5361746090622,42.8417771749664,-36.4983493590753,-174.839087610202,-218.857063972287,-168.443596647775,-183.310827629825,162.435365874708,-70.3155519805571,-92.1198138941503, , , , , , , , , , , , , , , , , , , , , , , , , , , , , , , , , , , , , , , , , , , , , , , , , , , , , , , , , , , , ,
-159.622809149795,-155.369297601998,4.25351154779707,56.7595731567285,2.23845079429435,-150.069316009559,-214.795850526816,-182.154194419986,-196.021292579846,157.496053375897,-81.938160348796,-75.5578930271004, , , , , , , , , , , , , , , , , , , , , , , , , , , , , , , , , , , , , , , , , , , , , , , , , , , , , , , , , , , , ,
-163.540605022371,-145.884142101391,17.6564629209803,71.7271594727782,47.2762494936885,-120.204671834688,-209.233064707886,-195.950088827968,-209.107335445601,154.712373561882,-90.5985339716758,-64.1138395902053, , , , , , , , , , , , , , , , , , , , , , , , , , , , , , , , , , , , , , , , , , , , , , , , , , , , , , , , , , , , ,
-166.333701924239,-132.150593018847,34.1831089053913,87.361388891869,98.6220783186124,-84.8341288038192,-201.48929607289,-210.188098725647,-221.812242228271,149.242147471543,-100.258405414815,-48.9837420567278, , , , , , , , , , , , , , , , , , , , , , , , , , , , , , , , , , , , , , , , , , , , , , , , , , , , , , , , , , , , ,
-167.320391072051,-118.549674704821,48.7707163672295,103.188849008758,156.063212773104,-43.6478854098537,-190.772514459848,-220.870944361548,-233.198244372726,142.935032888436,-108.04555371964,-34.8894791687958, , , , , , , , , , , , , , , , , , , , , , , , , , , , , , , , , , , , , , , , , , , , , , , , , , , , , , , , , , , , ,
-165.747722912666,-105.718800110714,60.028922801952,118.652643192031,219.131654916282,3.52255764402406,-176.194132155663,-228.08310740698,-242.670754223268,135.73326151169,-112.888322857309,-22.8449386543807, , , , , , , , , , , , , , , , , , , , , , , , , , , , , , , , , , , , , , , , , , , , , , , , , , , , , , , , , , , , ,
-163.579578135814,-95.8372123692263,67.7423657665876,133.123920447998,287.073036455515,56.6622153204634,-156.793016072699,-230.22950897203,-247.949833740579,129.70839525252,-115.660971951201,-14.0474233013192, , , , , , , , , , , , , , , , , , , , , , , , , , , , , , , , , , , , , , , , , , , , , , , , , , , , , , , , , , , , ,
-155.895246837145,-86.6418834347505,69.2533634023949,145.918068285438,358.822891507818,115.241107557623,-131.566731702839,-225.011504677499,-248.463895327309,121.268565135948,-112.57430511977,-8.69426001617766, , , , , , , , , , , , , , , , , , , , , , , , , , , , , , , , , , , , , , , , , , , , , , , , , , , , , , , , , , , , ,
-141.964564210803,-75.3139394668419,66.6506247439612,156.315151141751,432.993462992011,179.335954410253,-99.5086544058179,-211.026152395136,-242.194283170785,108.639251838823,-104.307594477382,-4.33165736144023, , , , , , , , , , , , , , , , , , , , , , , , , , , , , , , , , , , , , , , , , , , , , , , , , , , , , , , , , , , , ,
-122.468682069137,-63.7081491677172,58.7605329014199,163.583854291943,507.874150344702,247.860773658701,-59.6489785809547,-186.184788632527,-228.035097357178,93.0884156184273,-90.6146074852784,-2.47380813314854, , , , , , , , , , , , , , , , , , , , , , , , , , , , , , , , , , , , , , , , , , , , , , , , , , , , , , , , , , , , ,
-96.8595606563038,-53.1461844804105,43.7133761758934,167.007919753461,581.44832958604,319.343138831233,-11.0971389288177,-148.949900928022,-204.602888427868,75.0028725683573,-70.2864684160985,-4.71640415225844, , , , , , , , , , , , , , , , , , , , , , , , , , , , , , , , , , , , , , , , , , , , , , , , , , , , , , , , , , , , ,
-64.7548222386375,-40.7936471196624,23.9611751189751,165.913868246507,651.428539509636,393.089709603607,46.9171821636344,-97.1933788733026,-170.187837541334,52.7742346791501,-44.3579986788062,-8.41623600034351, , , , , , , , , , , , , , , , , , , , , , , , , , , , , , , , , , , , , , , , , , , , , , , , , , , , , , , , , , , , ,
-25.9682514591976,-23.2171017081153,2.75114975108237,159.698711977399,715.310942804061,467.01357458857,115.007358362222,-29.7583237493668,-123.850404790879,24.5926765836565,-14.3597006051399,-10.2329759785163, , , , , , , , , , , , , , , , , , , , , , , , , , , , , , , , , , , , , , , , , , , , , , , , , , , , , , , , , , , , ,
19.4699844927956,-2.34903482115306,-21.8190193139486,147.856385048045,770.448632407759,539.128578768346,193.600081079491,55.0567640817508,-64.4803756808538,-8.56047483582115,20.6445019033722,-12.0840270675507, , , , , , , , , , , , , , , , , , , , , , , , , , , , , , , , , , , , , , , , , , , , , , , , , , , , , , , , , , , , ,
71.3047649431161,20.7291841735291,-50.575580769587,130.0017401939,814.14190302624,607.241352047685,282.914650022433,157.849251321102,8.62132001764324,-46.0169745583225,60.9401728563516,-14.9231982980288, , , , , , , , , , , , , , , , , , , , , , , , , , , , , , , , , , , , , , , , , , , , , , , , , , , , , , , , , , , , ,
129.059402009826,53.9599981856795,-75.099403824146,105.891156933638,843.74217930241,669.027748983318,382.952488327168,279.677654614372,95.9076409027339,-91.5097000977524,102.079402916986,-10.5697028192331, , , , , , , , , , , , , , , , , , , , , , , , , , , , , , , , , , , , , , , , , , , , , , , , , , , , , , , , , , , , ,
192.050243417906,91.7955812245093,-100.254662193396,75.4390462909903,856.764985334641,722.12598856697,493.496952104364,420.464891237487,197.49869775556,-141.922912321207,146.152452805651,-4.22954048444345, , , , , , , , , , , , , , , , , , , , , , , , , , , , , , , , , , , , , , , , , , , , , , , , , , , , , , , , , , , , ,
256.226816228546,137.698402663419,-118.528413565127,38.7297828749707,851.0062325278,764.241600129786,614.122214780408,580.024198154537,313.210083451349,-196.962609445982,187.377614896837,9.58499454914598, , , , , , , , , , , , , , , , , , , , , , , , , , , , , , , , , , , , , , , , , , , , , , , , , , , , , , , , , , , , ,
326.242449347466,193.449527396507,-132.792921950959,-3.9751959301598,824.655284296389,793.257665482527,744.208701293602,758.108370667596,442.330992514184,-259.845988371987,229.517685649213,30.3283027227743, , , , , , , , , , , , , , , , , , , , , , , , , , , , , , , , , , , , , , , , , , , , , , , , , , , , , , , , , , , , ,
399.217828682247,253.222569344527,-145.995259337721,-52.2352398595898,776.397843841577,807.342700320551,882.961437451786,953.348822940535,584.152304295552,-326.220199013387,272.606544009984,53.6136550034032, , , , , , , , , , , , , , , , , , , , , , , , , , , , , , , , , , , , , , , , , , , , , , , , , , , , , , , , , , , , ,
473.143285804621,321.160259488525,-151.983026316097,-105.433325730552,705.501802746392,805.048059120227,1029.42700943503,1164.33360038454,736.960867914066,-397.151772646573,312.563156060359,84.588616586214, , , , , , , , , , , , , , , , , , , , , , , , , , , , , , , , , , , , , , , , , , , , , , , , , , , , , , , , , , , , ,
546.742761962177,396.781831389156,-149.960930573021,-162.783906261452,611.879800947013,785.387088764916,1182.50480781555,1388.47151922005,899.171639017398,-471.762296675666,348.351846267599,123.410450408068, , , , , , , , , , , , , , , , , , , , , , , , , , , , , , , , , , , , , , , , , , , , , , , , , , , , , , , , , , , , ,
618.735267986606,479.163379915407,-139.571888071199,-223.345784761426,496.123327809932,747.889383303415,1340.94896530038,1624.53491341634,1068.80028315883,-548.949323951007,379.153578028903,169.795745922104, , , , , , , , , , , , , , , , , , , , , , , , , , , , , , , , , , , , , , , , , , , , , , , , , , , , , , , , , , , , ,
686.271888560733,567.008870719579,-119.263017841155,-286.040006886565,359.504680949008,692.625294770853,1503.35884373449,1869.14131731203,1243.83629098097,-626.640379640156,402.767453200944,223.872926439212, , , , , , , , , , , , , , , , , , , , , , , , , , , , , , , , , , , , , , , , , , , , , , , , , , , , , , , , , , , , ,
748.491666286223,658.672582601991,-89.8190836842316,-349.672674441061,203.944968049806,620.198149850851,1668.15788725035,2119.10098267998,1421.13072494946,-703.582124444107,419.155374985227,284.42674945888, , , , , , , , , , , , , , , , , , , , , , , , , , , , , , , , , , , , , , , , , , , , , , , , , , , , , , , , , , , , ,
807.932392487342,752.196495580452,-55.7358969068902,-412.962430587521,31.9485471198418,531.704184522078,1833.56284495024,2370.23917939631,1598.68100208569,-780.064444033897,431.834144697116,348.230299336781, , , , , , , , , , , , , , , , , , , , , , , , , , , , , , , , , , , , , , , , , , , , , , , , , , , , , , , , , , , , ,
861.007012303076,845.362005131577,-15.6450071714986,-474.57215338607,-153.493278434087,428.662812439256,1997.54748384555,2619.83781764139,1772.47541335351,-853.184508717326,438.326009737287,414.858498980039, , , , , , , , , , , , , , , , , , , , , , , , , , , , , , , , , , , , , , , , , , , , , , , , , , , , , , , , , , , , ,
901.348154558585,935.755126241259,34.406971682674,-533.144137508323,-349.024101323987,312.922264487779,2157.80669088551,2862.91300319106,1939.97411259547,-918.551640399922,433.470591437956,485.081048961967, , , , , , , , , , , , , , , , , , , , , , , , , , , , , , , , , , , , , , , , , , , , , , , , , , , , , , , , , , , , ,
932.875528807338,1020.84392270159,87.9683938942477,-587.337750945853,-551.062509589709,186.547639132315,2311.72803717289,3095.24992816634,2097.81352537176,-976.859725754461,422.453567456545,554.406158297917, , , , , , , , , , , , , , , , , , , , , , , , , , , , , , , , , , , , , , , , , , , , , , , , , , , , , , , , , , , , ,
