-131.308825811553,-116.767842363334,14.5409834482183,34.448020578552,-77.6665168288186,-149.275047930706,-227.323513381206,-294.231992532288,-227.044267211176,124.038334087444,-72.9249046298852,-51.1134294575579,632,642,0,632,638,636,632,642,640,618,620,640,766,745,0,744,619,716,728,734,736,700,738,742,876,878,0,835,871,872,875,887,877,810,874,879,1085,1099,0,953,1065,1067,1079,1085,1087,1083,1089,1119,930,940,0,930,936,934,930,940,938,916,918,938,
-131.308825811553,-116.767842363334,14.5409834482183,34.448020578552,-77.6665168288186,-149.275047930706,-227.323513381206,-294.231992532288,-227.044267211176,124.038334087444,-72.9249046298852,-51.1134294575579,1312,1321, ,1312,1318,1315,1312,1321,1319,1298,1300,1319,802,776, ,782,781,759,762,775,802,721,771,778,908,898, ,913,892,893,893,907,910,901,912,901,1160,1169, ,1168,1158,1157,1157,1158,1160,1163,1155,1182,1613,1622, ,1613,1619,1616,1613,1622,1620,1599,1601,1620,
-131.308825811553,-116.767842363334,14.5409834482183,34.448020578552,-77.6665168288186,-149.275047930706,-227.323513381206,-294.231992532288,-227.044267211176,124.038334087444,-72.9249046298852,-51.1134294575579,1994,2002, ,1994,2000,1996,1994,2002,2000,1979,1982,2000,833,832, ,811,1299,783,795,833,835,767,805,835,936,934, ,936,915,917,929,935,937,935,939,937,1204,1214, ,1636,1219,1215,1210,1205,1203,1763,1194,1224,2294,2302, ,2294,2300,2297,2294,2302,2301,2279,2282,2301,
-131.308825811553,-116.767842363334,14.5409834482183,34.448020578552,-77.6665168288186,-149.275047930706,-227.323513381206,-294.231992532288,-227.044267211176,124.038334087444,-72.9249046298852,-51.1134294575579,2668,2676, ,2668,2674,2671,2668,2676,2675,2654,2656,2675,1446,1432, ,1424,1461,1396,1408,1414,1447,1316,1417,1415,970,975, ,953,939,950,954,957,973,948,966,981,1765,1781, ,1850,1745,1747,1759,1765,1766,1845,1768,1801,2961,2971, ,2961,2968,2965,2961,2971,2969,2948,2950,2969,
-131.308825811553,-116.767842363334,14.5409834482183,34.448020578552,-77.6665168288186,-149.275047930706,-227.323513381206,-294.231992532288,-227.044267211176,124.038334087444,-72.9249046298852,-51.1134294575579,3332,3342, ,3332,3338,3336,3332,3342,3340,3318,3320,3340,1484,1460, ,1465,1980,1444,1447,1456,1485,1389,1453,1457,1001,1009, ,1516,964,990,1005,1002,1001,1489,979,1016,1841,1854, ,2333,1842,1839,1839,1841,1843,2444,1835,1862,3622,3633, ,3622,3629,3627,3622,3633,3630,3609,3611,3630,
-131.308825811553,-116.767842363334,14.5409834482183,34.448020578552,-77.6665168288186,-149.275047930706,-227.323513381206,-294.231992532288,-227.044267211176,124.038334087444,-72.9249046298852,-51.1134294575579,3996,4007, ,3996,4003,4001,3996,4007,4004,3983,3986,4004,1513,1513, ,1491,2142,1527,1475,1513,1514,1447,1484,1514,1557,1563, ,1596,1554,1555,1558,1569,1560,1584,1549,1557,1889,1898, ,2544,1902,1899,1893,1889,1888,2527,1882,1900,4291,4301, ,4291,4297,4295,4291,4301,4299,4277,4280,4299,
-131.308825811553,-116.767842363334,14.5409834482183,34.448020578552,-77.6665168288186,-149.275047930706,-227.323513381206,-294.231992532288,-227.044267211176,124.038334087444,-72.9249046298852,-51.1134294575579,4670,4680, ,4670,4677,4674,4670,4680,4678,4657,4660,4678,2128,2113, ,2122,2782,2078,2090,2096,2096,2061,2098,2103,1590,1583, ,1619,1575,1576,1576,1589,1592,1617,1594,1579,2447,2457, ,2985,2426,2429,2441,2447,2449,3119,2449,2478,4970,4980, ,4970,4977,4974,4970,4980,4978,4957,4959,4978,
-131.308825811553,-116.767842363334,14.5409834482183,34.448020578552,-77.6665168288186,-149.275047930706,-227.323513381206,-294.231992532288,-227.044267211176,124.038334087444,-72.9249046298852,-51.1134294575579,5359,5368, ,5359,5366,5362,5359,5368,5366,5346,5348,5366,2162,2140, ,2164,2829,2124,2127,2141,2147,2063,2134,2138,1618,1619, ,1636,1598,1600,1612,1618,1619,1641,1621,1615,2523,2532, ,3007,2522,2521,2520,2522,2525,3196,2517,2542,5668,5677, ,5668,5674,5671,5668,5677,5675,5654,5656,5675,
-131.308825811553,-116.767842363334,14.5409834482183,34.448020578552,-77.6665168288186,-149.275047930706,-227.323513381206,-294.231992532288,-227.044267211176,124.038334087444,-72.9249046298852,-51.1134294575579,6051,6060, ,6051,6057,6054,6051,6060,6058,6038,6040,6058,2195,2195, ,2189,2849,2209,2157,2195,2195,2086,2165,2195,1653,1661, ,2218,1621,1632,1637,1640,1656,2171,1648,1661,2569,2578, ,3078,2582,2579,2573,2568,2567,3641,2560,2583,6354,6364, ,6354,6360,6357,6354,6364,6361,6341,6343,6361,
-131.308825811553,-145.581076322378,-14.2722505108248,37.394693159838,-65.6359408240974,-149.275047930706,-227.323513381206,-300.560762606119,-232.734314070931,138.444951066965,-58.5182876503637,-79.9266634166011,6738,6749, ,6738,6745,6742,6738,6749,6746,6726,6728,6746,2802,2784, ,2669,3446,2752,2764,2770,2771,2128,2772,2771,1722,1696, ,2293,1646,1674,1687,1685,1685,2264,1666,1696,3121,3122, ,3651,2992,3103,3083,3098,3112,3858,3091,3139,7043,7054, ,7043,7050,7047,7043,7054,7051,7030,7032,7051,
-131.308825811553,-172.641906159018,-41.3330803474649,40.5920978210387,-57.8391937135036,-149.275047930706,-227.323513381206,-317.689409457886,-243.517074643735,151.975365985285,-44.9878727320436,-106.987493253241,7430,7441, ,7430,7437,7434,7430,7441,7438,7416,7419,7438,2829,2814, ,2831,3490,2795,2800,2805,2810,2704,2803,2810,2241,2241, ,2316,2234,2235,2238,2250,2241,2298,2236,2238,3192,3201, ,3858,3189,3189,3188,3189,3191,4309,3187,3212,7738,7748, ,7738,7744,7741,7738,7748,7745,7723,7726,7745,
-131.308825811553,-194.046518305749,-62.7376924941958,43.0947274590714,-55.3585884923885,-149.275047930706,-227.323513381206,-327.373130965695,-249.370766910776,162.677672058651,-34.2855666586782,-128.392105399972,8127,8136, ,8127,8133,8130,8127,8136,8134,8112,8115,8134,2869,2869, ,3333,3513,2819,2831,2869,2870,2714,2839,2870,2271,2259, ,2333,2256,2256,2256,2270,2273,2337,2275,2259,3236,3251, ,3943,3201,3247,3241,3235,3235,4524,3222,3260,8436,8445, ,8436,8442,8439,8436,8445,8443,8421,8424,8443,
-131.308825811553,-204.574011601848,-73.265185790295,44.5676567195241,-54.8543555886701,-149.275047930706,-227.323513381206,-330.273839228144,-251.188845804309,167.9414187067,-29.0218200106286,-138.919598696071,8828,8836, ,8828,8834,8831,8828,8836,8835,8814,8816,8835,3434,3447, ,3463,4111,3448,3428,3434,3436,2738,3438,3436,2299,2297, ,2861,2278,2281,2293,2299,2300,2425,2301,2296,3759,3785, ,4315,3657,3767,3747,3760,3771,5121,3757,3802,9140,9148, ,9140,9146,9143,9140,9148,9147,9126,9128,9147,
-131.308825811553,-201.639881944293,-70.3310561327404,44.2279556707244,-56.1777986405118,-149.275047930706,-227.323513381206,-328.278323282579,-249.633868667438,166.474353877923,-30.4888848394059,-135.985469038517,9667,9673, ,9667,9675,9637,9667,9673,9676,9653,9655,9676,3494,3473, ,3997,4158,3492,3456,3469,3475,2803,3466,3472,2334,2339, ,2945,2302,2313,2317,2321,2337,2838,2327,2341,3853,3864, ,4336,3850,3848,3848,3850,3853,5203,3838,3869, , , , , , , , , , , , ,
-131.308825811553,-193.642626027829,-62.3338002162765,44.4768718431301,-58.7322803244771,-149.275047930706,-227.323513381206,-321.840988648609,-245.557016390236,162.475725919691,-34.4875127976379,-127.988213122053, , , , , , , , , , , , ,3533,3533, ,4159,4178,3515,3495,3533,3535,3255,3505,3535,2410,2378, ,2968,2327,2359,2368,2365,2365,2933,2352,2381,3896,3909, ,4390,3865,3906,3901,3897,3896,5701,3881,3916, , , , , , , , , , , , ,
-131.308825811553,-181.925386172022,-50.6165603604694,43.5113237889015,-62.0572339960741,-149.275047930706,-227.323513381206,-313.177738927282,-239.893341323447,156.617105991787,-40.3461327255414,-116.270973266246, , , , , , , , , , , , ,4132,4105, ,4798,4753,4082,4092,4099,4100,3416,4103,4100,2911,2910, ,2984,2903,2903,2906,2916,2912,2966,2907,2908,4451,4455, ,4993,4326,4433,4443,4423,4451,5918,4422,4474, , , , , , , , , , , , ,
-131.308825811553,-168.500058742301,-37.1912329307482,42.0205070775305,-66.7952819517424,-149.275047930706,-227.323513381206,-302.316831157443,-232.966577252523,149.904442276927,-47.058796440402,-102.845645836524, , , , , , , , , , , , ,4161,4137, ,4823,4795,4121,4124,4134,4164,3478,4132,4136,2939,2931, ,3511,2924,2925,2925,2967,2941,2980,2944,2929,4520,4529, ,5203,4520,4518,4517,4519,4521,6372,4514,4538, , , , , , , , , , , , ,
-131.308825811553,-153.629398255518,-22.3205724439657,40.4880009578388,-70.7888440340159,-149.275047930706,-227.323513381206,-294.231992532288,-227.044267211176,142.469112033536,-54.4941266837932,-87.9749853497419, , , , , , , , , , , , ,4199,4198, ,4865,4820,4149,4159,4198,4199,4016,4170,4199,2967,2965, ,3606,2947,2949,2960,2989,2968,3500,2970,2964,4565,4576, ,5281,4530,4576,4570,4566,4566,6588,4553,4584, , , , , , , , , , , , ,
-131.308825811553,-139.990928565822,-8.68210275426929,38.9135790539579,-74.8666429308237,-149.275047930706,-227.323513381206,-294.231992532288,-227.044267211176,135.649877188687,-61.3133615286415,-74.3365156600455, , , , , , , , , , , , ,4806,4788, ,5487,5506,4762,4766,4773,4774,4033,4776,4774,3005,3010, ,3629,2970,2982,2986,3037,3007,3561,2996,3012,5125,5133, ,5690,5104,5113,5117,5124,5125,7061,5095,5152, , , , , , , , , , , , ,
-131.308825811553,-126.410086529612,4.8987392819405,37.5367341464269,-77.6665168288186,-149.275047930706,-227.323513381206,-294.231992532288,-227.044267211176,128.859456170583,-68.1037825467463,-60.7556736238357, , , , , , , , , , , , ,4842,4816, ,5522,5534,4806,4802,4818,4838,4081,4812,4815,3086,3051, ,3646,2992,3025,3039,3578,3036,3627,3067,3050,5200,5210, ,5902,5202,5203,5197,5198,5200,7279,5197,5217, , , , , , , , , , , , ,
-131.308825811553,-116.767842363334,14.5409834482183,36.1894142698363,-77.6665168288186,-149.275047930706,-227.323513381206,-294.231992532288,-227.044267211176,124.038334087444,-72.9249046298852,-51.1134294575579, , , , , , , , , , , , ,4873,4872, ,5554,5573,4829,4833,4872,4873,4147,4843,4873,3571,3571, ,4190,3564,3565,3568,3628,3571,3641,3567,3569,5246,5256, ,5970,5260,5262,5250,5245,5245,7756,5237,5263, , , , , , , , , , , , ,
-131.308825811553,-116.767842363334,14.5409834482183,35.2206324895007,-77.6665168288186,-149.275047930706,-227.323513381206,-294.231992532288,-227.044267211176,124.038334087444,-72.9249046298852,-51.1134294575579, , , , , , , , , , , , ,5494,5492, ,6179,6057,5509,5455,5464,5494,4706,5444,5478,3600,3591, ,4274,3585,3586,3586,3650,3602,4170,3606,3590,5813,5838, ,6376,5825,5796,5806,5815,5815,7973,5795,5858, , , , , , , , , , , , ,
-131.308825811553,-116.767842363334,14.5409834482183,34.448020578552,-77.6665168288186,-149.275047930706,-227.323513381206,-294.231992532288,-227.044267211176,124.038334087444,-72.9249046298852,-51.1134294575579, , , , , , , , , , , , ,5540,5515, ,6207,6219,5567,5500,5515,5539,4728,5489,5512,3628,3627, ,4297,3608,3610,3621,3696,3629,4262,3632,3626,5899,5910, ,6590,5900,5895,5895,5898,5898,8059,5872,5917, , , , , , , , , , , , ,
-131.308825811553,-116.767842363334,14.5409834482183,34.448020578552,-77.6665168288186,-149.275047930706,-227.323513381206,-294.231992532288,-227.044267211176,124.038334087444,-72.9249046298852,-51.1134294575579, , , , , , , , , , , , ,5561,5563, ,6246,6873,5608,5586,5563,5561,4761,5543,5561,3664,3669, ,4315,3632,3643,3647,4247,3666,4296,3659,3671,5944,5953, ,6662,5958,5954,5948,5946,5943,8591,5916,5955, , , , , , , , , , , , ,
-131.308825811553,-116.767842363334,14.5409834482183,34.448020578552,-77.6665168288186,-149.275047930706,-227.323513381206,-294.231992532288,-227.044267211176,124.038334087444,-72.9249046298852,-51.1134294575579, , , , , , , , , , , , ,6163,6178, ,6866,6909,6136,6115,6156,6186,4805,6168,6162,3696,3704, ,4876,3657,3686,3699,4267,3696,4309,3674,3707,6482,6520, ,7066,6503,6487,6498,6507,6505,8668,6487,6543, , , , , , , , , , , , ,
-131.308825811553,-116.767842363334,14.5409834482183,34.448020578552,-77.6665168288186,-149.275047930706,-227.323513381206,-294.231992532288,-227.044267211176,124.038334087444,-72.9249046298852,-51.1134294575579, , , , , , , , , , , , ,6201,6200, ,6897,6940,6185,6146,6200,6208,5407,6196,6199,4238,4239, ,4954,4232,4233,4236,4296,4240,4849,4235,4236,6560,6594, ,7277,6604,6582,6581,6582,6584,8755,6578,6604, , , , , , , , , , , , ,
-131.308825811553,-116.767842363334,14.5409834482183,34.448020578552,-77.6665168288186,-149.275047930706,-227.323513381206,-294.231992532288,-227.044267211176,124.038334087444,-72.9249046298852,-51.1134294575579, , , , , , , , , , , , ,6230,6255, ,6933,7565,6267,6182,6255,6253,5473,6235,6253,4269,4259, ,4977,4253,4254,4253,4318,4271,4941,4274,4257,6605,6638, ,7349,6661,6641,6634,6630,6629,9427,6619,6645, , , , , , , , , , , , ,
-131.308825811553,-116.767842363334,14.5409834482183,34.448020578552,-77.6665168288186,-149.275047930706,-227.323513381206,-294.231992532288,-227.044267211176,124.038334087444,-72.9249046298852,-51.1134294575579, , , , , , , , , , , , ,6883,6864, ,7558,7602,6875,6802,6750,6874,5541,6856,6852,4297,4295, ,4993,4276,4279,4290,4363,4298,4975,4300,4294,7202,7205, ,7761,7149,7162,7185,7196,7193,9471,7179,7217, , , , , , , , , , , , ,
-131.308825811553,-116.767842363334,14.5409834482183,34.448020578552,-77.6665168288186,-149.275047930706,-227.323513381206,-294.231992532288,-227.044267211176,124.038334087444,-72.9249046298852,-51.1134294575579, , , , , , , , , , , , ,6912,6891, ,7589,7632,6942,6838,6944,6911,6070,6886,6889,4331,4336, ,5580,4300,4311,4315,4927,4334,4989,4327,4338,7276,7282, ,7972,7260,7270,7269,7271,7274, ,7267,7291, , , , , , , , , , , , ,
-131.308825811553,-116.767842363334,14.5409834482183,34.448020578552,-77.6665168288186,-149.275047930706,-227.323513381206,-294.231992532288,-227.044267211176,124.038334087444,-72.9249046298852,-51.1134294575579, , , , , , , , , , , , ,6950,6944, ,7625,8261,7526,6869,7537,6941,6110,6923,6941,4362,4369, ,5651,4326,4352,4364,4946,4362,5560,4342,4371,7318,7332, ,8041,7274,7328,7322,7318,7318, ,7305,7342, , , , , , , , , , , , ,
-131.384302193976,-116.767842363334,14.6164598306412,34.448020578552,-77.6665168288186,-149.275047930706,-227.323513381206,-294.231992532288,-227.044267211176,124.076072278655,-73.0003810123081,-51.0756912663465, , , , , , , , , , , , ,7542,7556, ,8255,8300,7567,7526,7579,7566,6201,7547,7545,4917,4918, ,5674,4912,4918,4916,4976,4919,5654,4913,4915,7893,7901, ,8458,7843,7877,7877,7888,7885, ,7866,7920, , , , , , , , , , , , ,
-131.559555665868,-117.040253118185,14.5193025476822,34.448020578552,-77.6665168288186,-149.275047930706,-227.323513381206,-294.231992532288,-227.044267211176,124.299904392026,-73.0394291067746,-51.2604752852514, , , , , , , , , , , , ,7608,7581, ,8286,8328,7593,7569,7636,7609,6790,7578,7580,4948,4939, ,5690,4933,4939,4933,4998,4950,5687,4952,4938,7967,7978, ,8669,7966,7964,7964,7965,7968, ,7959,7984, , , , , , , , , , , , ,
-131.83299181113,-123.113495327034,8.71949648409622,35.0400355441941,-77.6665168288186,-149.275047930706,-227.323513381206,-294.231992532288,-227.044267211176,127.473243569082,-70.2762441476129,-57.1969994214687, , , , , , , , , , , , ,7641,7636, ,8322,8962,8260,7593,8232,7633,6808,7614,7633,4976,4974, ,6260,4956,4964,4969,5043,4977,5701,4979,4973,8013,8025, ,8738,7984,8022,8016,8012,8012, ,7999,8035, , , , , , , , , , , , ,
-132.281608538428,-127.832445047865,4.44916349056251,35.3748424114523,-77.6665168288186,-149.275047930706,-227.323513381206,-294.231992532288,-227.044267211176,130.057026793146,-68.3653860144947,-61.691640778651, , , , , , , , , , , , ,8287,8256, ,8956,9004,8301,8223,8277,8262,6835,8243,8243,5011,5017, ,6337,4979,4996,4994,5626,5014,6230,5006,5019,8606,8604, ,9162,8546,8579,8574,8583,8584, ,8594,8622, , , , , , , , , , , , ,
-132.812231561946,-132.599009226269,0.213222335677189,35.6741992194392,-77.6665168288186,-149.275047930706,-227.323513381206,-294.231992532288,-227.044267211176,132.705620394107,-66.5127269488113,-66.1928934452957, , , , , , , , , , , , ,8322,8278, ,9001,9029,8327,8267,8331,8307,6889,8275,8277,5043,5051, ,6360,5005,5038,5047,5646,5042,6324,5021,5053,8682,8675, ,9373,8666,8662,8662,8663,8666, ,8657,8685, , , , , , , , , , , , ,
-133.636970549611,-136.810269352536,-3.17329880292609,35.9463692628638,-77.6665168288186,-149.275047930706,-227.323513381206,-294.673859117071,-229.052560406505,135.223619951073,-65.2318358733418,-69.991784077731, , , , , , , , , , , , ,8354,8331, ,9023, ,8895,8354,8868,8329,7480,8310,8329,5614,5617, ,6376,5609,5610,5613,5675,5616,6358,5590,5612,8727,8722, ,9439,8680,8720,8715,8711,8710, ,8699,8731, , , , , , , , , , , , ,
-134.619927493872,-138.411564257339,-3.79163676346739,36.1983860091269,-77.6665168288186,-149.275047930706,-227.323513381206,-297.786848641182,-230.849041842453,136.515745875605,-65.4141453652018,-71.101600510403, , , , , , , , , , , , ,9007,8958, , , ,8933,8924,8930,8963,7506,8944,8946,5646,5637, ,6957,5630,5631,5630,5697,5648,6372,5630,5634,9275,9301, , ,9245,9246,9275,9283,9285, ,9263,9328, , , , , , , , , , , , ,
-135.336368660836,-141.160310239315,-5.8239415784795,36.458611199943,-77.6665168288186,-149.275047930706,-227.323513381206,-300.428218679534,-233.229556923792,138.248339450075,-64.7562135411776,-73.492125908897, , , , , , , , , , , , ,9010,8982, , , ,8962,8970,8967,9011,7579,8979,8981,5673,5674, ,7027,5653,5655,5667,5742,5674,6920,5656,5670,9370,9379, , ,9369,9333,9366,9368,9370, ,9365,9386, , , , , , , , , , , , ,
-136.618173604619,-143.443483212206,-6.82530960758685,36.6410308355569,-77.6665168288186,-149.275047930706,-227.323513381206,-302.619438710305,-234.404889125527,140.030828408412,-64.8964319985157,-75.1343964098961, , , , , , , , , , , , ,9055,9031, , , , ,9055, ,9062,8176,9011,9030,5709,5716, ,7049,5676,5687,5692,6309,5712,7014,5683,5716,9415,9426, , ,9381,9391,9419,9415,9414, ,9406,9533, , , , , , , , , , , , ,
-137.254009246486,-144.963188479453,-7.70917923296671,36.6713902678194,-77.6665168288186,-149.275047930706,-227.323513381206,-304.398498028892,-235.35695533856,141.108598862969,-64.7724150067593,-76.3361838562095, , , , , , , , , , , , , , , , , , , , , ,8221, , ,5740,5756, ,7066,5701,5730,5743,6359,5740,7048,5699,5755, , , , , , , , , , , , , , , , , , , , , , , , ,
-138.590327999247,-145.205207276333,-6.61487927708694,36.6767784011556,-77.6665168288186,-149.275047930706,-227.323513381206,-305.812843765919,-236.122829511329,141.89776763779,-65.9877243610794,-75.91004327671, , , , , , , , , , , , , , , , , , , , , ,8260, , ,6281,6302, ,7646,6313,6296,6299,6381,6303,7061,6298,6300, , , , , , , , , , , , , , , , , , , , , , , , ,
-139.055587398881,-144.901982759255,-5.84639536037453,36.6164983334404,-77.6665168288186,-149.275047930706,-227.323513381206,-306.912990141805,-236.738572242047,141.978785079068,-66.6045960192527,-75.3741890598147, , , , , , , , , , , , , , , , , , , , , ,8878, , ,6308,6322, ,7720,6335,6317,6317,6429,6333,7616,6337,6321, , , , , , , , , , , , , , , , , , , , , , , , ,
-139.417225934348,-143.949654447588,-4.53242851324013,36.4146582170641,-77.6665168288186,-149.275047930706,-227.323513381206,-307.7471210112,-237.235695320119,141.683440190968,-67.4423987105534,-74.2410414804137, , , , , , , , , , , , , , , , , , , , , ,8883, , ,6337,6358, ,7743,6358,6342,6353,6999,6360,7708,6363,6356, , , , , , , , , , , , , , , , , , , , , , , , ,
-139.663213570217,-143.889665555037,-4.22645198482049,36.1413964664453,-77.6665168288186,-149.275047930706,-227.323513381206,-308.356885376473,-237.638611007215,141.776439562627,-67.7183807926977,-74.0580587699286, , , , , , , , , , , , , , , , , , , , , ,8926, , ,6374,6402, ,7761,6380,6375,6378,7018,6400,7742,6389,6404, , , , , , , , , , , , , , , , , , , , , , , , ,
-139.788037078381,-142.585568014317,-2.79753093593707,35.7909198087426,-77.6665168288186,-149.275047930706,-227.620020135735,-308.774479153646,-237.963100755779,141.186802546349,-68.4952530712214,-72.6915494751271, , , , , , , , , , , , , , , , , , , , , ,8977, , ,6406,6440, ,8335,6403,6416,6432,7049,6429,7756,6407,6440, , , , , , , , , , , , , , , , , , , , , , , , ,
-139.792219452621,-141.380522730904,-1.58830327828364,35.3957448661509,-77.6665168288186,-149.275047930706,-228.518182987532,-309.021022797841,-238.215766198004,140.586371091763,-69.1019580871683,-71.4844130045939, , , , , , , , , , , , , , , , , , , , , , , , ,6990,6991, ,8418,6985,6985,6988,7071,6992,8316,6988,6989, , , , , , , , , , , , , , , , , , , , , , , , ,
-139.681422147554,-140.841129388404,-1.15970724085051,35.2718102162713,-77.6665168288186,-149.275047930706,-229.15670005384,-309.106182572481,-238.394379476547,140.261275767979,-69.2608574533514,-71.0004183146273, , , , , , , , , , , , , , , , , , , , , , , , ,7021,7011, ,8441,7007,7006,7006,7118,7023,8406,7026,7010, , , , , , , , , , , , , , , , , , , , , , , , ,
-139.46527729947,-143.948968879716,-4.48369158024624,34.8192911520844,-77.6665168288186,-149.275047930706,-229.497918059133,-309.028936383956,-238.489023922876,141.707123089593,-67.4907928596113,-74.2163302299808, , , , , , , , , , , , , , , , , , , , , , , , ,7049,7047, ,8458,7030,7031,7042,7694,7050,8440,7053,7046, , , , , , , , , , , , , , , , , , , , , , , , ,
-139.156101837801,-147.363306416529,-8.20720457872826,34.448020578552,-77.6665168288186,-149.275047930706,-229.508034421132,-308.77934404895,-238.483895600687,143.259704127164,-65.4744486295357,-77.7852554976282, , , , , , , , , , , , , , , , , , , , , , , , ,7086,7090, ,9043,7053,7064,7067,7714,7088,8453,7080,7092, , , , , , , , , , , , , , , , , , , , , , , , ,
-138.767632079058,-151.010177261368,-12.2425451823101,34.448020578552,-77.6665168288186,-149.275047930706,-229.159587260831,-308.341140233019,-238.359611367759,144.888904670213,-63.2625434483735,-81.6263612218387, , , , , , , , , , , , , , , , , , , , , , , , ,7177,7125, ,9122,7076,7106,7120,7743,7118,9016,7159,7126, , , , , , , , , , , , , , , , , , , , , , , , ,
-138.313886362303,-147.68792931218,-9.37404294987745,34.448020578552,-77.6665168288186,-149.275047930706,-228.433929583166,-307.694923887689,-238.095838823073,143.000907837241,-64.4699217062122,-78.5309861310285, , , , , , , , , , , , , , , , , , , , , , , , ,7683,7685, ,9145,7678,7679,7683,7765,7685,9109,7681,7682, , , , , , , , , , , , , , , , , , , , , , , , ,
-137.808218641509,-143.909424001428,-6.10120535992001,34.448020578552,-77.6665168288186,-149.275047930706,-227.323513381206,-306.821672881059,-237.674033307856,140.858821321468,-65.8535066407939,-75.005314680674, , , , , , , , , , , , , , , , , , , , , , , , ,7715,7704, ,9162,7699,7700,7700,7809,7717,9144,7720,7703, , , , , , , , , , , , , , , , , , , , , , , , ,
-137.262577065235,-139.619469583966,-2.35689251873096,34.448020578552,-77.6665168288186,-149.275047930706,-227.323513381206,-305.706275205664,-237.080046907378,138.4410233246,-67.4528422732515,-70.9881810513481, , , , , , , , , , , , , , , , , , , , , , , , ,7743,7741, , ,7722,7725,7737,8392,7744,9184,7747,7740, , , , , , , , , , , , , , , , , , , , , , , , ,
-136.68694299205,-134.775161798996,1.91178119305393,34.448020578552,-77.6665168288186,-149.275047930706,-227.323513381206,-304.340752477976,-236.30637490572,135.731052395523,-69.2993620925517,-66.4316903029709, , , , , , , , , , , , , , , , , , , , , , , , ,7778,7783, , ,7746,7757,7761,8413,7781,9379,7774,7785, , , , , , , , , , , , , , , , , , , , , , , , ,
-136.088910056972,-129.350922826669,6.73798723030294,34.448020578552,-77.6665168288186,-149.275047930706,-227.323513381206,-302.726869037802,-235.353831520292,132.719916441821,-71.4134486436372,-61.3064677981829, , , , , , , , , , , , , , , , , , , , , , , , ,7849,7817, , ,7771,7798,7812,8441,7809, ,7789,7820, , , , , , , , , , , , , , , , , , , , , , , , ,
-135.473370250233,-123.342244209703,12.1311260405291,34.448020578552,-77.6665168288186,-149.275047930706,-227.323513381206,-300.877873676849,-234.232496609993,129.407807229968,-73.8022481453805,-55.605559084587, , , , , , , , , , , , , , , , , , , , , , , , ,8397,8382, , ,8377,8377,8381,8463,8382, ,8377,8379, , , , , , , , , , , , , , , , , , , , , , , , ,
-134.842291827624,-116.767842363334,18.0744494642888,34.7900444574075,-75.7336450538669,-149.275047930706,-227.323513381206,-298.819203623081,-232.961842795126,125.805067095479,-76.4583706459558,-49.3466964495226, , , , , , , , , , , , , , , , , , , , , , , , ,8430,8403, , ,8398,8398,8398,8507,8415, ,8417,8402, , , , , , , , , , , , , , , , , , , , , , , , ,
-134.194587404719,-116.767842363334,17.4267450413839,35.3065138283218,-73.367229117414,-149.275047930706,-227.323513381206,-296.588076806892,-231.57003045479,125.481214884026,-75.8106662230508,-49.6705486609751, , , , , , , , , , , , , , , , , , , , , , , , ,8458,8439, , ,8420,8423,8435,9096,8442, ,8444,8438, , , , , , , , , , , , , , , , , , , , , , , , ,
-133.526073530198,-116.767842363334,16.7582311668634,35.7372308182927,-70.9318385164538,-149.275047930706,-227.323513381206,-294.231992532288,-230.09243415061,125.146957946766,-75.1421523485303,-50.0048055982354, , , , , , , , , , , , , , , , , , , , , , , , ,8493,8481, , ,8444,8455,8460,9116,8480, ,8471,8483, , , , , , , , , , , , , , , , , , , , , , , , ,
-132.829516698087,-116.767842363334,16.0616743347527,36.1821243469617,-68.8467828906902,-147.600134678494,-227.323513381206,-294.231992532288,-228.569524404597,124.798679530711,-74.4455955164196,-50.3530840142907, , , , , , , , , , , , , , , , , , , , , , , , ,8557,8538, , ,8469,8497,8510,9145,8507, ,8484,8540, , , , , , , , , , , , , , , , , , , , , , , , ,
-132.094748891256,-116.767842363334,15.3269065279211,37.4725116293888,-66.9491580333442,-143.448761981409,-227.323513381206,-294.231992532288,-227.044267211176,124.431295627295,-73.710827709588,-50.7204679177065, , , , , , , , , , , , , , , , , , , , , , , , ,9086,9086, , ,9081,9047,9085,9167,9087, ,9082,9083, , , , , , , , , , , , , , , , , , , , , , , , ,
-131.308825811553,-116.767842363334,14.5409834482183,39.3820979464982,-65.3880684329398,-139.280580155893,-227.323513381206,-294.231992532288,-227.044267211176,124.038334087444,-72.9249046298852,-51.1134294575579, , , , , , , , , , , , , , , , , , , , , , , , ,9117,9106, , ,9102,9068,9102,9212,9119, ,9121,9105, , , , , , , , , , , , , , , , , , , , , , , , ,
-131.308825811553,-116.767842363334,14.5409834482183,41.4606110474079,-64.1633890979805,-136.19371764591,-227.323513381206,-294.231992532288,-227.044267211176,124.038334087444,-72.9249046298852,-51.1134294575579, , , , , , , , , , , , , , , , , , , , , , , , ,9145,9143, , ,9125,9093,9139, ,9146, ,9147,9142, , , , , , , , , , , , , , , , , , , , , , , , ,
-131.308825811553,-116.767842363334,14.5409834482183,42.2344797202403,-62.8288022861335,-133.67421911125,-225.330952683326,-294.231992532288,-227.044267211176,124.038334087444,-72.9249046298852,-51.1134294575579, , , , , , , , , , , , , , , , , , , , , , , , ,9181,9186, , ,9148,9125,9163, ,9184, ,9175,9188, , , , , , , , , , , , , , , , , , , , , , , , ,
-131.308825811553,-116.767842363334,14.5409834482183,43.0142135105024,-61.6835413064929,-132.045176418805,-223.617003659077,-294.231992532288,-227.044267211176,124.038334087444,-72.9249046298852,-51.1134294575579, , , , , , , , , , , , , , , , , , , , , , , , ,9252,9219, , ,9172,9167,9215, ,9211, ,9198,9221, , , , , , , , , , , , , , , , , , , , , , , , ,
-131.308825811553,-116.767842363334,14.5409834482183,44.7956232828369,-61.0184224954702,-129.646921492395,-222.193684480584,-294.231992532288,-227.044267211176,124.038334087444,-72.9249046298852,-51.1134294575579, , , , , , , , , , , , , , , , , , , , , , , , , , , , , , , , , , , , , , , , , , , , , , , , , , , , , , , , , , , , ,
-131.308825811553,-116.767842363334,14.5409834482183,46.4461633940559,-61.0756523448327,-128.772803459335,-220.919937266133,-294.231992532288,-227.044267211176,124.038334087444,-72.9249046298852,-51.1134294575579, , , , , , , , , , , , , , , , , , , , , , , , , , , , , , , , , , , , , , , , , , , , , , , , , , , , , , , , , , , , ,
-131.308825811553,-116.767842363334,14.5409834482183,45.0938255149798,-60.5901876503493,-126.509844516894,-219.967404985654,-294.231992532288,-227.044267211176,124.038334087444,-72.9249046298852,-51.1134294575579, , , , , , , , , , , , , , , , , , , , , , , , , , , , , , , , , , , , , , , , , , , , , , , , , , , , , , , , , , , , ,
-131.308825811553,-114.51316362694,16.795662184613,45.8095943866573,-61.0855899620764,-125.259404964015,-218.393001851146,-291.905557976662,-227.044267211176,122.910994719246,-74.0522439980826,-48.8587507211632, , , , , , , , , , , , , , , , , , , , , , , , , , , , , , , , , , , , , , , , , , , , , , , , , , , , , , , , , , , , ,
-131.308825811553,-107.598265178635,23.7105606329175,46.7044389230942,-61.1427624590171,-123.894715112938,-216.82606281764,-290.423477615099,-227.044267211176,119.453545495094,-77.5096932222348,-41.9438522728587, , , , , , , , , , , , , , , , , , , , , , , , , , , , , , , , , , , , , , , , , , , , , , , , , , , , , , , , , , , , ,
-131.308825811553,-100.899234236265,30.4095915752874,46.3030575923796,-61.1758502087474,-122.616003243174,-215.869723542411,-288.720444391764,-227.044267211176,116.104030023909,-80.8592086934198,-35.2448213304888, , , , , , , , , , , , , , , , , , , , , , , , , , , , , , , , , , , , , , , , , , , , , , , , , , , , , , , , , , , , ,
-131.308825811553,-94.3384001908059,36.9704256207468,43.3119769247782,-60.2700248974134,-121.672313939625,-213.980212880119,-287.940123892299,-227.044267211176,112.823613001179,-84.1396257161495,-28.6839872850294, , , , , , , , , , , , , , , , , , , , , , , , , , , , , , , , , , , , , , , , , , , , , , , , , , , , , , , , , , , , ,
-128.573305411117,-87.818815308613,40.7544901025037,40.1240926918432,-59.8772140765138,-119.10680186012,-212.921717128834,-285.532040962601,-227.044267211176,108.196060359865,-84.66389775681,-23.5321626030545, , , , , , , , , , , , , , , , , , , , , , , , , , , , , , , , , , , , , , , , , , , , , , , , , , , , , , , , , , , , ,
-125.14892359037,-81.2296813429616,43.9192422474086,36.7880740215141,-58.4015177732403,-117.407060042799,-211.331729853744,-283.23170848464,-227.044267211176,103.189302466666,-84.5340829188891,-18.6552195477763, , , , , , , , , , , , , , , , , , , , , , , , , , , , , , , , , , , , , , , , , , , , , , , , , , , , , , , , , , , , ,
-121.886967797379,-74.4524491041773,47.4345186932015,34.448020578552,-56.8168842426356,-115.638644050843,-208.95790961558,-282.021595454824,-227.044267211176,98.169708450778,-84.6607432452899,-13.5089652054877, , , , , , , , , , , , , , , , , , , , , , , , , , , , , , , , , , , , , , , , , , , , , , , , , , , , , , , , , , , , ,
-117.897285299161,-67.3672472966416,50.5300380025186,32.3922890933709,-54.932164639179,-112.322698619158,-205.669982332247,-280.892859085788,-227.044267211176,92.6322662979009,-84.2136616508392,-8.41860464706131, , , , , , , , , , , , , , , , , , , , , , , , , , , , , , , , , , , , , , , , , , , , , , , , , , , , , , , , , , , , ,
-114.669708896185,-59.8593618979059,54.810346998279,27.2933045785385,-52.5535710856056,-109.355414871983,-203.685440512297,-279.599550197601,-225.892029558183,87.2645353970454,-84.7400279472317,-2.52450744981331, , , , , , , , , , , , , , , , , , , , , , , , , , , , , , , , , , , , , , , , , , , , , , , , , , , , , , , , , , , , ,
-111.489648539735,-51.8255644075175,59.6640841322169,23.5642845183092,-50.4706430163554,-105.865866277483,-200.98385303654,-276.210106390794,-223.836623654532,81.6576064736259,-85.5768663359754,3.91925986234988, , , , , , , , , , , , , , , , , , , , , , , , , , , , , , , , , , , , , , , , , , , , , , , , , , , , , , , , , , , , ,
-106.973453156895,-38.2500411794187,68.7234119774757,19.681721391041,-48.0781865905012,-101.943477110773,-197.215694987477,-274.436297718374,-222.007969495757,72.6117471681566,-87.8484325671848,15.2366853990287, , , , , , , , , , , , , , , , , , , , , , , , , , , , , , , , , , , , , , , , , , , , , , , , , , , , , , , , , , , , ,
-103.985914940166,-28.8620081176807,75.1239068224845,15.057765570199,-46.4401234158879,-97.1584191825034,-193.506685834735,-270.65341419442,-219.571350849719,66.423961528923,-89.5549108813246,23.1309493524021, , , , , , , , , , , , , , , , , , , , , , , , , , , , , , , , , , , , , , , , , , , , , , , , , , , , , , , , , , , , ,
-101.186382272714,-11.4194447494765,89.7669375232376,10.6499260510148,-45.0862059824353,-92.6427267848649,-190.042140998763,-268.67741250778,-217.501600394486,56.3029135110953,-95.4766598979756,39.1737463868807, , , , , , , , , , , , , , , , , , , , , , , , , , , , , , , , , , , , , , , , , , , , , , , , , , , , , , , , , , , , ,
-97.8966544969805,3.21878683953356,101.115441336514,5.8406354915245,-44.8214858993217,-88.6682830204396,-186.29096848603,-266.497055752386,-214.740678432126,47.3389338287233,-99.5060479167467,52.1671140880238, , , , , , , , , , , , , , , , , , , , , , , , , , , , , , , , , , , , , , , , , , , , , , , , , , , , , , , , , , , , ,
-95.3365823428001,18.522770770539,113.859353113339,-0.0567061538196754,-42.2935448262522,-85.4722996777076,-182.914835984466,-262.55527721703,-211.975210796765,38.4069057861304,-104.597967728069,66.191061941939, , , , , , , , , , , , , , , , , , , , , , , , , , , , , , , , , , , , , , , , , , , , , , , , , , , , , , , , , , , , ,
-93.114664029109,37.4392133957031,130.553877424812,-5.97137159281299,-42.8480314530986,-81.7056150477778,-180.168878420188,-259.976471516409,-209.577657738793,27.8377253167028,-111.83427072696,83.9965454102576, , , , , , , , , , , , , , , , , , , , , , , , , , , , , , , , , , , , , , , , , , , , , , , , , , , , , , , , , , , , ,
-90.7517688832706,51.1627856529885,141.914554536259,-12.5771131901199,-34.4717859552417,-79.6769102520502,-176.668051228311,-257.452158574858,-206.642210066457,19.7944916151408,-116.333161709764,96.5386700946238, , , , , , , , , , , , , , , , , , , , , , , , , , , , , , , , , , , , , , , , , , , , , , , , , , , , , , , , , , , , ,
-88.8804962040907,72.3654649591147,161.245961163205,-19.9449369767064,-32.1700045727566,-78.619670455318,-173.633257002928,-254.430778585273,-204.021955650594,8.25751562248784,-125.063228683647,116.80571306116, , , , , , , , , , , , , , , , , , , , , , , , , , , , , , , , , , , , , , , , , , , , , , , , , , , , , , , , , , , , ,
-87.450679128722,86.3641217474726,173.814800876194,-28.1213655552412,-33.280566952476,-77.4029864651025,-172.272803393973,-252.091129269459,-201.130167373831,0.543278690624518,-130.632740002458,130.089461311834, , , , , , , , , , , , , , , , , , , , , , , , , , , , , , , , , , , , , , , , , , , , , , , , , , , , , , , , , , , , ,
-85.1543026679488,107.178019270241,192.332321938189,-37.1229926963535,-27.453026005081,-78.3910467531991,-171.416864433154,-249.783806283148,-198.074273031083,-11.0118583011461,-138.743312303069,149.755170604215, , , , , , , , , , , , , , , , , , , , , , , , , , , , , , , , , , , , , , , , , , , , , , , , , , , , , , , , , , , , ,
-84.1986576318456,122.507307848996,206.705965480842,-48.236269447276,-34.2384334485503,-80.4249506908849,-169.613966648787,-247.410473593793,-194.953006176991,-19.1543251085756,-145.452311556343,164.606636664919, , , , , , , , , , , , , , , , , , , , , , , , , , , , , , , , , , , , , , , , , , , , , , , , , , , , , , , , , , , , ,
-82.920750620203,141.55257418388,224.473324804082,-58.8010359797257,-34.402882600194,-83.4734937858088,-169.643621273375,-245.066404042216,-191.750874520803,-29.3159117818386,-153.697037712142,183.012949493981, , , , , , , , , , , , , , , , , , , , , , , , , , , , , , , , , , , , , , , , , , , , , , , , , , , , , , , , , , , , ,
-81.2637441151327,156.764612923945,238.028357039077,-70.0324998765947,-33.1296331884718,-87.5458714372899,-169.598987347568,-243.011032176084,-188.670555611563,-37.7504344044061,-159.646050577104,197.396484981511, , , , , , , , , , , , , , , , , , , , , , , , , , , , , , , , , , , , , , , , , , , , , , , , , , , , , , , , , , , , ,
-80.1882210811204,168.721777978012,248.909999059133,-82.7339520820504,-46.3189301044872,-92.7507805477408,-170.829851359549,-241.081947627634,-186.090548596624,-44.2667784484462,-164.549110070126,208.815888518573, , , , , , , , , , , , , , , , , , , , , , , , , , , , , , , , , , , , , , , , , , , , , , , , , , , , , , , , , , , , ,
-78.1142754559847,184.878223054237,262.992498510222,-95.0170055671531,-59.19535635725,-98.8490077308953,-172.330474224483,-239.442685116537,-182.787982442863,-53.3819737991266,-170.553386983103,223.93536078223, , , , , , , , , , , , , , , , , , , , , , , , , , , , , , , , , , , , , , , , , , , , , , , , , , , , , , , , , , , , ,
-76.4189892365885,198.662716090737,275.081705327325,-107.410867000174,-75.1506774585225,-105.599468963759,-174.698279631256,-237.872430444059,-179.919906110678,-61.1218634270746,-175.750347281957,236.872210709031, , , , , , , , , , , , , , , , , , , , , , , , , , , , , , , , , , , , , , , , , , , , , , , , , , , , , , , , , , , , ,
-74.9471841384991,212.176165587297,287.123349725796,-119.840000083239,-85.0211992971082,-113.137056552816,-176.31019402575,-236.5089566376,-177.582570848467,-68.6144907243992,-181.035266932147,249.649757656547, , , , , , , , , , , , , , , , , , , , , , , , , , , , , , , , , , , , , , , , , , , , , , , , , , , , , , , , , , , , ,
-72.7058193469798,224.447865861309,297.153685208288,-132.111379384523,-101.874467800527,-121.250666073009,-179.594856523729,-235.563463067663,-175.283469680868,-75.8710232571648,-184.929752277634,260.800775534799, , , , , , , , , , , , , , , , , , , , , , , , , , , , , , , , , , , , , , , , , , , , , , , , , , , , , , , , , , , , ,
-70.7670434445758,235.199077914834,305.96612135941,-144.034956506322,-118.400913779285,-129.646561036101,-182.157939167319,-234.650063843787,-173.002385767299,-82.2160172351294,-188.366582401992,270.582599637122, , , , , , , , , , , , , , , , , , , , , , , , , , , , , , , , , , , , , , , , , , , , , , , , , , , , , , , , , , , , ,
-68.1708763198307,245.909294976225,314.080171296055,-155.432266976354,-134.339305944479,-138.314979739357,-186.013929776074,-234.24244265661,-170.28516107767,-88.8692093281974,-191.125523807943,279.99473313614, , , , , , , , , , , , , , , , , , , , , , , , , , , , , , , , , , , , , , , , , , , , , , , , , , , , , , , , , , , , ,
-65.8162969059466,253.902944888665,319.719241794611,-166.144234728719,-149.471917285441,-146.938469195251,-189.574487489057,-233.031354160264,-167.213093108949,-94.0433239913591,-192.767769350278,286.811093341638, , , , , , , , , , , , , , , , , , , , , , , , , , , , , , , , , , , , , , , , , , , , , , , , , , , , , , , , , , , , ,
-62.883466947165,263.36432267477,326.247789621935,-176.037778100066,-163.632162883888,-149.275047930706,-193.046961541686,-232.784883788365,-165.467101942696,-100.240427863803,-194.565628284549,294.806056148353, , , , , , , , , , , , , , , , , , , , , , , , , , , , , , , , , , , , , , , , , , , , , , , , , , , , , , , , , , , , ,
-60.7742535610656,268.684361869315,329.45861543038,-185.010931767902,-176.708293501941,-149.275047930706,-196.376543326871,-232.365820372985,-162.83436331915,-103.955054154125,-195.116434495722,299.071488649847, , , , , , , , , , , , , , , , , , , , , , , , , , , , , , , , , , , , , , , , , , , , , , , , , , , , , , , , , , , , ,
-58.0544947877671,277.460252712734,335.514747500501,-192.996298061151,-188.643086956893,-149.275047930706,-200.214688309156,-232.72755365468,-160.692536706705,-109.702878962484,-196.784621144133,306.487500106618, , , , , , , , , , , , , , , , , , , , , , , , , , , , , , , , , , , , , , , , , , , , , , , , , , , , , , , , , , , , ,
-56.3056287813573,280.196657841231,336.502286622588,-199.962722541071,-198.561855888957,-149.275047930706,-203.506749843022,-233.03633338849,-159.610577140631,-111.945514529937,-196.403957701972,308.34947223191, , , , , , , , , , , , , , , , , , , , , , , , , , , , , , , , , , , , , , , , , , , , , , , , , , , , , , , , , , , , ,
-54.2167997106607,287.881731147394,342.098530858055,-206.674435898268,-206.276963661008,-149.275047930706,-207.504625098742,-233.433371566987,-158.32743298762,-116.832465718367,-198.157665284357,314.990131002725, , , , , , , , , , , , , , , , , , , , , , , , , , , , , , , , , , , , , , , , , , , , , , , , , , , , , , , , , , , , ,
-53.0154405521806,290.22731356008,343.24275411226,-213.37289518997,-212.801193466872,-149.275047930706,-210.943560517617,-234.07349314213,-157.245246471223,-118.60593650395,-198.12909733222,316.73503383617, , , , , , , , , , , , , , , , , , , , , , , , , , , , , , , , , , , , , , , , , , , , , , , , , , , , , , , , , , , , ,
-51.8642702536283,295.480656744106,347.344926997734,-217.445052924953,-218.270688046444,-149.275047930706,-215.043625155714,-235.729729488465,-156.916391191038,-121.808193245239,-199.604598625681,321.41279187092, , , , , , , , , , , , , , , , , , , , , , , , , , , , , , , , , , , , , , , , , , , , , , , , , , , , , , , , , , , , ,
-51.1611347951207,297.640274534356,348.801409329477,-220.706455435891,-222.851291180573,-149.275047930706,-218.870617622956,-237.797788569472,-155.8598005869,-123.239569869618,-199.981272062298,323.220841931917, , , , , , , , , , , , , , , , , , , , , , , , , , , , , , , , , , , , , , , , , , , , , , , , , , , , , , , , , , , , ,
-50.995591856817,298.661945474748,349.657537331565,-223.270029009906,-226.726974286669,-149.275047930706,-223.126741944811,-239.091781862697,-156.019384637461,-123.833176808966,-200.32656459419,324.159741403156, , , , , , , , , , , , , , , , , , , , , , , , , , , , , , , , , , , , , , , , , , , , , , , , , , , , , , , , , , , , ,
-51.0935838874367,298.762585443119,349.856169330555,-225.259143428234,-230.087681430462,-149.275047930706,-227.323513381206,-241.867355357732,-154.94361370057,-123.834500777841,-200.474876608996,324.309377386837, , , , , , , , , , , , , , , , , , , , , , , , , , , , , , , , , , , , , , , , , , , , , , , , , , , , , , , , , , , , ,
-51.4759952046876,298.604172955524,350.080168160211,-226.799069100994,-233.117153821259,-149.275047930706,-227.323513381206,-244.459066744054,-155.330053506191,-123.564088875418,-200.778081682449,324.342170557868, , , , , , , , , , , , , , , , , , , , , , , , , , , , , , , , , , , , , , , , , , , , , , , , , , , , , , , , , , , , ,
-51.9893546419114,298.161370146519,350.15072478843,-228.008212592127,-235.06448522431,-149.275047930706,-227.323513381206,-248.206155444737,-156.125559367514,-123.086007752304,-201.07003971517,324.156047467474, , , , , , , , , , , , , , , , , , , , , , , , , , , , , , , , , , , , , , , , , , , , , , , , , , , , , , , , , , , , ,
-52.5519280186368,297.391776084346,349.943704102982,-228.989582247491,-237.231819185956,-149.922804999048,-227.323513381206,-252.126107084336,-157.064705920502,-122.419924032855,-201.247816060809,323.667740093664, , , , , , , , , , , , , , , , , , , , , , , , , , , , , , , , , , , , , , , , , , , , , , , , , , , , , , , , , , , , ,
-53.068653330658,296.237493912423,349.306147243081,-229.822932858493,-239.210191872729,-155.269838922217,-227.323513381206,-256.143798414058,-158.103162177,-121.584420290883,-201.187400286869,322.771820577752, , , , , , , , , , , , , , , , , , , , , , , , , , , , , , , , , , , , , , , , , , , , , , , , , , , , , , , , , , , , ,
-53.4159198212688,294.626887796734,348.042807618002,-230.558057091009,-240.830922629466,-160.503280166281,-227.323513381206,-260.174465732319,-159.193243330768,-120.605483987733,-200.729363719635,321.334847707368, , , , , , , , , , , , , , , , , , , , , , , , , , , , , , , , , , , , , , , , , , , , , , , , , , , , , , , , , , , , ,
-53.4527772963269,292.476640223263,345.92941751959,-231.209718263226,-242.75786772937,-166.153359830351,-227.323513381206,-264.127057735569,-160.287251131849,-119.511931463468,-199.691097407958,319.203028871427, , , , , , , , , , , , , , , , , , , , , , , , , , , , , , , , , , , , , , , , , , , , , , , , , , , , , , , , , , , , ,
-53.131167187469,289.694339164529,342.825506351998,-231.718692236847,-244.928750069401,-171.213121073756,-227.323513381206,-267.908429342646,-161.341096652391,-118.28158598853,-197.978336769733,316.259922758264, , , , , , , , , , , , , , , , , , , , , , , , , , , , , , , , , , , , , , , , , , , , , , , , , , , , , , , , , , , , ,
-52.7190390939645,286.181848049362,338.900887143326,-231.15262254043,-247.228385511721,-176.110843531243,-227.323513381206,-271.428130149342,-162.317905669769,-116.731404477699,-195.809963118645,312.541367596344, , , , , , , , , , , , , , , , , , , , , , , , , , , , , , , , , , , , , , , , , , , , , , , , , , , , , , , , , , , , ,
-51.7757149138645,281.839618292257,333.615333206121,-231.263610806332,-249.559378579992,-181.570056164439,-231.330105806866,-274.603488823875,-163.19132451428,-115.031951689196,-192.695524059992,307.727475749189, , , , , , , , , , , , , , , , , , , , , , , , , , , , , , , , , , , , , , , , , , , , , , , , , , , , , , , , , , , , ,
-50.5178147513356,276.571925076788,327.089739828124,-230.980501156924,-252.361177137365,-186.73346915837,-235.248053460521,-277.364677784849,-163.948297050632,-113.027055162727,-188.803777289729,301.830832452456, , , , , , , , , , , , , , , , , , , , , , , , , , , , , , , , , , , , , , , , , , , , , , , , , , , , , , , , , , , , ,
-49.2476171958123,270.292805335734,319.540422531546,-230.151974885558,-255.434848746354,-190.384657747411,-238.867347600611,-278.83726700385,-163.426570437501,-110.522594069961,-184.394019863679,294.916613933641, , , , , , , , , , , , , , , , , , , , , , , , , , , , , , , , , , , , , , , , , , , , , , , , , , , , , , , , , , , , ,
-47.7536781940093,262.932307904673,310.685986098682,-228.613669504123,-256.998773722956,-194.328788076403,-240.942680784125,-280.527659606224,-163.706565488517,-107.589314855332,-179.219832146345,286.809147001678, , , , , , , , , , , , , , , , , , , , , , , , , , , , , , , , , , , , , , , , , , , , , , , , , , , , , , , , , , , , ,
-46.1107850779946,254.442552503549,300.553337581543,-226.199689197621,-257.629688416901,-197.081286713443,-243.214709302228,-280.209067706383,-163.192220763575,-104.165883712777,-173.332061329768,277.497945042546, , , , , , , , , , , , , , , , , , , , , , , , , , , , , , , , , , , , , , , , , , , , , , , , , , , , , , , , , , , , ,
-44.7876920486876,244.803039531428,289.590731580116,-222.754923020927,-258.094255910565,-199.297570891918,-243.070977268799,-280.965567175298,-163.501813299681,-100.00767374137,-167.189211814401,267.196885555772, , , , , , , , , , , , , , , , , , , , , , , , , , , , , , , , , , , , , , , , , , , , , , , , , , , , , , , , , , , , ,
-43.16581458809,234.024660266002,277.190474854092,-218.147310570753,-256.319424958286,-200.440017200698,-243.822125431774,-280.040255772415,-163.095628735112,-95.4294228389561,-160.17814472109,255.607567560047, , , , , , , , , , , , , , , , , , , , , , , , , , , , , , , , , , , , , , , , , , , , , , , , , , , , , , , , , , , , ,
-42.413869541861,222.151929876827,264.565799418688,-212.279141453452,-253.150428173764,-200.444308630957,-243.839735884403,-279.960513782599,-163.77560412864,-89.8690301674831,-153.489834480274,243.358864647757, , , , , , , , , , , , , , , , , , , , , , , , , , , , , , , , , , , , , , , , , , , , , , , , , , , , , , , , , , , , ,
-42.2229015347964,209.263100265123,251.486001799919,-205.096509670748,-249.621251626062,-199.294736694145,-243.100579947912,-279.687294087176,-164.258903994331,-83.5200993651633,-146.854451667357,230.374551032521, , , , , , , , , , , , , , , , , , , , , , , , , , , , , , , , , , , , , , , , , , , , , , , , , , , , , , , , , , , , ,
-42.7361778904769,196.349177810584,239.08535570106,-196.596184774471,-243.561421257463,-197.02851654879,-241.686718992151,-278.359272386654,-165.152281107327,-76.8064999600536,-140.910766795768,217.717266755822, , , , , , , , , , , , , , , , , , , , , , , , , , , , , , , , , , , , , , , , , , , , , , , , , , , , , , , , , , , , ,
-43.9772626770641,182.930062292417,226.90732496948,-186.829384495788,-236.136011193742,-193.736589805647,-239.71576168643,-277.901974648001,-166.609010636014,-69.4763998076764,-135.442293823272,204.918693630949, , , , , , , , , , , , , , , , , , , , , , , , , , , , , , , , , , , , , , , , , , , , , , , , , , , , , , , , , , , , ,
-46.6618445119254,168.36127292821,215.023117440136,-175.902185908342,-228.729852462334,-189.560771192963,-237.335401883848,-276.891136987848,-168.307250653777,-60.8497142081427,-130.84248097603,191.692195184173, , , , , , , , , , , , , , , , , , , , , , , , , , , , , , , , , , , , , , , , , , , , , , , , , , , , , , , , , , , , ,
-49.7852189839662,152.746378642626,202.531597626592,-163.972552640446,-219.057765722808,-184.687403083642,-234.715734674003,-276.935907353019,-170.65299739377,-51.4805798293301,-126.158408305279,177.638988134609, , , , , , , , , , , , , , , , , , , , , , , , , , , , , , , , , , , , , , , , , , , , , , , , , , , , , , , , , , , , ,
-53.8306649373958,136.262468695694,190.09313363309,-151.244173681524,-208.61539162488,-179.337961331108,-232.039934782401,-278.161809918496,-173.787972277987,-41.2159018791494,-121.961899285242,163.177801164392, , , , , , , , , , , , , , , , , , , , , , , , , , , , , , , , , , , , , , , , , , , , , , , , , , , , , , , , , , , , ,
-59.1332327167985,120.297315867961,179.430548584759,-137.957509505135,-199.108095468575,-173.757306469538,-229.494035038058,-279.20280879378,-177.301225672855,-30.5820415755816,-119.281890650779,149.863932226361, , , , , , , , , , , , , , , , , , , , , , , , , , , , , , , , , , , , , , , , , , , , , , , , , , , , , , , , , , , , ,
-65.0267666665593,104.408831409969,169.435598076528,-124.378621160443,-188.017399504723,-168.20048236529,-227.256634018257,-280.739067162093,-181.802292675883,-19.6910323717052,-117.231182371543,136.922214743249, , , , , , , , , , , , , , , , , , , , , , , , , , , , , , , , , , , , , , , , , , , , , , , , , , , , , , , , , , , , ,
-71.7019333844939,87.6001344995605,159.302067884054,-110.786503665989,-177.076964681888,-162.919084439025,-225.489361436632,-283.876485537347,-186.636445948941,-7.94910055753344,-115.502000634274,123.451101191807, , , , , , , , , , , , , , , , , , , , , , , , , , , , , , , , , , , , , , , , , , , , , , , , , , , , , , , , , , , , ,
-79.2107080352676,69.1963697176932,148.407077752961,-97.4597370314949,-166.594237445898,-158.148199848471,-224.328805753494,-286.704438645918,-192.152744546667,5.00716915878705,-113.808892894114,108.801723735327, , , , , , , , , , , , , , , , , , , , , , , , , , , , , , , , , , , , , , , , , , , , , , , , , , , , , , , , , , , , ,
-87.0970782534949,50.0006130534778,137.097691306972,-84.6632884697396,-156.850204518537,-154.094752970264,-223.880369261208,-290.17168884325,-198.122394381889,18.5482326000084,-112.097384780233,93.5491521802252, , , , , , , , , , , , , , , , , , , , , , , , , , , , , , , , , , , , , , , , , , , , , , , , , , , , , , , , , , , , ,
-95.1014924138344,34.5924371432614,129.693929557095,-72.6362438560708,-149.015707656788,-150.927832818139,-224.214231735347,-294.276706332629,-204.403617907334,30.2545276352863,-112.397710985464,82.1431833501786, , , , , , , , , , , , , , , , , , , , , , , , , , , , , , , , , , , , , , , , , , , , , , , , , , , , , , , , , , , , ,
-103.482527221017,14.8445525549275,118.327079775945,-61.5811380477498,-141.419941468515,-148.77134162567,-225.363375377402,-298.963307250018,-211.01034202195,44.3189873330447,-110.904803498481,66.5858161654362, , , , , , , , , , , , , , , , , , , , , , , , , , , , , , , , , , , , , , , , , , , , , , , , , , , , , , , , , , , , ,
-111.64552136575,1.15561285970604,112.801134225456,-51.655431629836,-135.791793647294,-147.69916330905,-227.323513381206,-303.96771467187,-217.652075732687,55.2449542530219,-112.223327795603,56.9783735425812, , , , , , , , , , , , , , , , , , , , , , , , , , , , , , , , , , , , , , , , , , , , , , , , , , , , , , , , , , , , ,
-119.126591384489,-17.362919821599,101.76367156289,-42.9655703806252,-130.859068615613,-147.732998852604,-230.054754098179,-309.778666688842,-224.34028797389,68.244755603044,-110.445131473689,42.2003758706457, , , , , , , , , , , , , , , , , , , , , , , , , , , , , , , , , , , , , , , , , , , , , , , , , , , , , , , , , , , , ,
-126.123717500964,-31.1288747112751,94.9948427896887,-35.5639519077786,-127.291316023505,-148.842979030496,-233.484853180681,-316.101263968743,-227.044267211176,78.6262961061194,-110.559280145326,31.932984039207, , , , , , , , , , , , , , , , , , , , , , , , , , , , , , , , , , , , , , , , , , , , , , , , , , , , , , , , , , , , ,
-132.622887113106,-47.6679628241263,84.954924288979,-29.448976627762,-125.94361764919,-150.951071929289,-237.513898714893,-321.733679675796,-237.134832627795,90.1454249686158,-108.788905701042,18.6434807324265, , , , , , , , , , , , , , , , , , , , , , , , , , , , , , , , , , , , , , , , , , , , , , , , , , , , , , , , , , , , ,
-138.217930761402,-60.976067979986,77.2418627814152,-24.5681557928012,-124.864660243173,-153.937132483115,-242.0202232147,-327.25176801423,-243.034066934633,99.5969993706937,-107.729896771408,8.13289740071476, , , , , , , , , , , , , , , , , , , , , , , , , , , , , , , , , , , , , , , , , , , , , , , , , , , , , , , , , , , , ,
-142.837465323715,-71.5675390799438,71.2699262437706,-20.824005979881,-124.80702709384,-157.647223372924,-246.867256144489,-332.709660790795,-248.484221420539,107.202502201829,-107.053695783742,-0.148806418086409, , , , , , , , , , , , , , , , , , , , , , , , , , , , , , , , , , , , , , , , , , , , , , , , , , , , , , , , , , , , ,
-146.514827485398,-86.0183661705848,60.4964613148133,-18.0822251369337,-125.571791128088,-161.9036219389,-251.910943301088,-338.944429709593,-253.524664225061,116.266596827991,-103.505644400105,-12.7609524278856, , , , , , , , , , , , , , , , , , , , , , , , , , , , , , , , , , , , , , , , , , , , , , , , , , , , , , , , , , , , ,
-149.333682375822,-99.1005004359822,50.2331819398394,-16.181465494897,-126.938597611137,-166.515761038171,-257.007285421434,-343.662443907358,-257.943305124185,124.217091405902,-99.7834321578302,-24.4336592480712, , , , , , , , , , , , , , , , , , , , , , , , , , , , , , , , , , , , , , , , , , , , , , , , , , , , , , , , , , , , ,
-151.322925111828,-112.316125588188,39.0067995236401,-14.2018432128806,-128.679378979576,-171.291266438205,-262.019509885882,-347.960520281328,-261.8532494232,131.819525350008,-95.1648623177336,-36.6546630322736, , , , , , , , , , , , , , , , , , , , , , , , , , , , , , , , , , , , , , , , , , , , , , , , , , , , , , , , , , , , ,
-152.587689322553,-125.437575398738,27.1501139238148,-12.6845771463953,-130.571510319646,-176.046272440452,-266.824407094723,-352.140184533769,-265.194206881681,139.012632360646,-89.8689016231836,-49.1437307374616, , , , , , , , , , , , , , , , , , , , , , , , , , , , , , , , , , , , , , , , , , , , , , , , , , , , , , , , , , , , ,
-153.217339872747,-137.574096340061,15.6432435326859,-12.2265913560785,-132.409531422673,-180.614321006124,-271.317442695069,-355.49793587317,-268.172060948168,145.395718106404,-84.4302917027162,-60.9654264036875, , , , , , , , , , , , , , , , , , , , , , , , , , , , , , , , , , , , , , , , , , , , , , , , , , , , , , , , , , , , ,
-153.34508829517,-150.934013534518,2.41107476065258,-11.9018017454363,-134.014764618364,-184.853344394061,-275.416380795903,-358.487743389094,-270.541273291513,152.139550914844,-77.8780815279111,-74.2614693869323, , , , , , , , , , , , , , , , , , , , , , , , , , , , , , , , , , , , , , , , , , , , , , , , , , , , , , , , , , , , ,
-153.114840816587,-161.953967646356,-8.83912682976965,-11.5632047566527,-136.110359866485,-188.650449030507,-279.063293100138,-361.740868590933,-272.618994865484,157.534404231471,-72.1378569934082,-85.3965472380628, , , , , , , , , , , , , , , , , , , , , , , , , , , , , , , , , , , , , , , , , , , , , , , , , , , , , , , , , , , , ,
-152.638194962153,-175.83938219736,-23.2011872352076,-11.0887348686375,-137.311803714411,-191.92442592752,-282.291843526366,-363.761210896863,-274.226047906898,164.238788579756,-64.7185038634722,-99.5202847162838, , , , , , , , , , , , , , , , , , , , , , , , , , , , , , , , , , , , , , , , , , , , , , , , , , , , , , , , , , , , ,
-152.053972479472,-184.109936578983,-32.0559640995116,-10.3844328713426,-137.504215395529,-194.626096492578,-286.725975408933,-365.424742725817,-275.679118837113,168.081954529227,-59.9990041899796,-108.082950339247, , , , , , , , , , , , , , , , , , , , , , , , , , , , , , , , , , , , , , , , , , , , , , , , , , , , , , , , , , , , ,
-151.483867039168,-192.682824548096,-41.1989575089282,-9.38568696135206,-138.619866721469,-197.16881885977,-289.035767993332,-366.793766982627,-276.776358362052,172.083345793632,-55.1424547651194,-116.940891028512, , , , , , , , , , , , , , , , , , , , , , , , , , , , , , , , , , , , , , , , , , , , , , , , , , , , , , , , , , , , ,
-151.01237605247,-207.210713714443,-56.1983376619726,-8.05669577996171,-138.976962731725,-198.768731839649,-291.80090162263,-367.934536699615,-277.999508677924,179.111544883456,-47.4070191952484,-131.704525688207, , , , , , , , , , , , , , , , , , , , , , , , , , , , , , , , , , , , , , , , , , , , , , , , , , , , , , , , , , , , ,
-150.722001485269,-214.712692745344,-63.9906912600751,-6.38837727997245,-138.282741008773,-200.784685231183,-293.236725233294,-369.832264387704,-278.824012393794,182.717347115306,-43.3656551125966,-139.351692002709, , , , , , , , , , , , , , , , , , , , , , , , , , , , , , , , , , , , , , , , , , , , , , , , , , , , , , , , , , , , ,
-150.740556162327,-229.349490905985,-78.6089347436583,-4.39500463838476,-138.540574630947,-201.29522315881,-294.536287563988,-372.768372328682,-279.619658935068,190.045023534156,-36.065810709334,-153.979212824822, , , , , , , , , , , , , , , , , , , , , , , , , , , , , , , , , , , , , , , , , , , , , , , , , , , , , , , , , , , , ,
-151.641831830753,-236.55803155477,-84.9161997240165,-2.10990078270981,-138.003109907951,-201.416012947545,-295.852438307022,-374.088088877946,-280.351512197825,194.099931692761,-33.3628160533679,-160.737115639393, , , , , , , , , , , , , , , , , , , , , , , , , , , , , , , , , , , , , , , , , , , , , , , , , , , , , , , , , , , , ,
-152.848019255273,-249.10481412535,-96.2567948700774,0.419437110513485,-135.815200855887,-201.085460083395,-301.031892725849,-374.915803332412,-281.484113415387,200.976416690311,-28.2956121925972,-172.680804497713, , , , , , , , , , , , , , , , , , , , , , , , , , , , , , , , , , , , , , , , , , , , , , , , , , , , , , , , , , , , ,
-154.356547473332,-258.251067153755,-103.894519680423,3.13639877374604,-134.952928769084,-201.29704409914,-301.47857304333,-375.77357935421,-282.384207407713,206.303807313543,-25.2310138964537,-181.072793417089, , , , , , , , , , , , , , , , , , , , , , , , , , , , , , , , , , , , , , , , , , , , , , , , , , , , , , , , , , , , ,
-156.150548707668,-266.981489474081,-110.830940766413,5.980149746196,-132.254502685077,-200.443327602847,-306.714597116128,-376.682615481562,-283.493615205584,211.566019090874,-22.6598039706273,-188.906215120247, , , , , , , , , , , , , , , , , , , , , , , , , , , , , , , , , , , , , , , , , , , , , , , , , , , , , , , , , , , , ,
-158.203184834894,-277.590447646651,-119.387262811757,8.89005218400991,-130.417212747332,-200.17207024071,-311.936247790768,-377.652942004946,-284.719341201415,217.896816240772,-19.4079610115681,-198.488855229204, , , , , , , , , , , , , , , , , , , , , , , , , , , , , , , , , , , , , , , , , , , , , , , , , , , , , , , , , , , , ,
-160.018754742478,-282.695881993945,-122.677127251467,11.8094022787506,-128.470804828973,-199.052553643812,-317.092661721948,-378.684678188268,-285.604026707702,221.357318368211,-18.670813745505,-202.686504622706, , , , , , , , , , , , , , , , , , , , , , , , , , , , , , , , , , , , , , , , , , , , , , , , , , , , , , , , , , , , ,
-161.786818840059,-286.22092516789,-124.434106327832,14.6883501038898,-127.462100786004,-197.999686765191,-320.736391777949,-379.769850618964,-286.55364879833,224.003872003974,-18.6763562561129,-205.327515747861, , , , , , , , , , , , , , , , , , , , , , , , , , , , , , , , , , , , , , , , , , , , , , , , , , , , , , , , , , , , ,
-164.274496887838,-294.157562755967,-129.883065868129,17.4859399989486,-124.890987301922,-197.250471954339,-322.155264125742,-380.894547214501,-287.737400001104,229.216029821902,-17.1957155098541,-212.020314312048, , , , , , , , , , , , , , , , , , , , , , , , , , , , , , , , , , , , , , , , , , , , , , , , , , , , , , , , , , , , ,
-166.879668653813,-296.737979979341,-129.858311325529,20.1712722872218,-122.947196377513,-196.070478408245,-327.093106203158,-382.041178663008,-289.018162576026,231.808824316577,-18.5106786641419,-213.298145652435, , , , , , , , , , , , , , , , , , , , , , , , , , , , , , , , , , , , , , , , , , , , , , , , , , , , , , , , , , , , ,
-169.587153175468,-298.927616501772,-129.340463326304,22.7238416918987,-121.696522978242,-195.128738417454,-330.140612698976,-383.190638093957,-289.877890639558,234.25738483862,-20.1233449245815,-214.134039914038, , , , , , , , , , , , , , , , , , , , , , , , , , , , , , , , , , , , , , , , , , , , , , , , , , , , , , , , , , , , ,
-172.390431265647,-300.771608401848,-128.381177136201,25.1331517466777,-119.989660531044,-194.030512663411,-331.974739402738,-384.32418918765,-291.687598014146,236.581019833747,-22.0046270647228,-214.576392769024, , , , , , , , , , , , , , , , , , , , , , , , , , , , , , , , , , , , , , , , , , , , , , , , , , , , , , , , , , , , ,
-174.214559284566,-302.322750175114,-128.108190890548,27.3977329470502,-118.311577588825,-197.772139854581,-336.647854095865,-385.424966371796,-292.728372302753,238.26865472984,-23.0531841970084,-215.215470532831, , , , , , , , , , , , , , , , , , , , , , , , , , , , , , , , , , , , , , , , , , , , , , , , , , , , , , , , , , , , ,
-176.187619690163,-303.638904156356,-127.451284466193,29.523705366785,-117.30495370724,-198.842387554765,-336.981631455337,-386.479026011342,-294.613691953601,239.913261923259,-24.3681676119843,-215.545094311274, , , , , , , , , , , , , , , , , , , , , , , , , , , , , , , , , , , , , , , , , , , , , , , , , , , , , , , , , , , , ,
-179.078392659549,-304.780167465537,-125.701774805988,31.523030553805,-116.089938322802,-201.218234728907,-337.133819459102,-387.475934079299,-295.786324811916,241.929280062543,-26.6883089267801,-215.240971135762, , , , , , , , , , , , , , , , , , , , , , , , , , , , , , , , , , , , , , , , , , , , , , , , , , , , , , , , , , , , ,
-182.088828843142,-305.806020672856,-123.717191829715,33.4115995582477,-124.807820072249,-205.685042784267,-337.622573156331,-388.408911407727,-297.887914333001,243.947424757999,-29.1858185067132,-214.761606251285, , , , , , , , , , , , , , , , , , , , , , , , , , , , , , , , , , , , , , , , , , , , , , , , , , , , , , , , , , , , ,
-184.676818964572,-306.772663520801,-122.095844556229,35.207304655523,-123.765676004203,-206.796842518835,-337.780068562499,-389.274585871444,-298.866185729896,245.724741242687,-31.2904872041711,-214.434254038515, , , , , , , , , , , , , , , , , , , , , , , , , , , , , , , , , , , , , , , , , , , , , , , , , , , , , , , , , , , , ,
-185.223500008696,-307.730711840869,-122.507211832173,36.92823561127,-126.435546585283,-209.531185500231,-338.574560765632,-390.072425846017,-299.892980939246,246.477105924783,-31.3581440882613,-215.118961836521, , , , , , , , , , , , , , , , , , , , , , , , , , , , , , , , , , , , , , , , , , , , , , , , , , , , , , , , , , , , ,
-185.728445072974,-308.72339034094,-122.994945267966,38.5911193712431,-132.850697631212,-214.383628527977,-338.814731332277,-390.803952286098,-300.972227272182,247.225917706957,-31.3667499025038,-215.859167804453, , , , , , , , , , , , , , , , , , , , , , , , , , , , , , , , , , , , , , , , , , , , , , , , , , , , , , , , , , , , ,
-186.209062689538,-304.78693901761,-118.577876328073,40.2100838632785,-139.354318093009,-219.536011435572,-339.784293095287,-391.47184380247,-302.103330154435,245.498000853574,-33.8155931807319,-211.682407672842, , , , , , , , , , , , , , , , , , , , , , , , , , , , , , , , , , , , , , , , , , , , , , , , , , , , , , , , , , , , ,
-179.198134722703,-304.757136928878,-125.559002206175,41.7957832436731,-144.481290592552,-225.073357232281,-340.236872692659,-392.079051712359,-303.280395270326,241.97763582579,-26.8195662582633,-215.158069567527, , , , , , , , , , , , , , , , , , , , , , , , , , , , , , , , , , , , , , , , , , , , , , , , , , , , , , , , , , , , ,
-176.588683529518,-301.917914916307,-125.329231386789,43.3548901725766,-143.81584518002,-231.064964154889,-340.394526654464,-392.628024349863,-304.491960081605,239.253299222913,-25.6297260713644,-213.623573151548, , , , , , , , , , , , , , , , , , , , , , , , , , , , , , , , , , , , , , , , , , , , , , , , , , , , , , , , , , , , ,
-173.212495122411,-297.285718026045,-124.073222903635,44.8899478595094,-144.810525462954,-237.066380523523,-340.554926530934,-393.120106017698,-305.721276016748,235.249106574228,-24.5696361093873,-210.67947046484, , , , , , , , , , , , , , , , , , , , , , , , , , , , , , , , , , , , , , , , , , , , , , , , , , , , , , , , , , , , ,
-171.323167355686,-288.030063889747,-116.706896534061,46.3995708920632,-150.087702743358,-237.177317045389,-340.71872960413,-393.555138500818,-306.947121982939,229.676615622716,-27.3081354108121,-202.368480211904, , , , , , , , , , , , , , , , , , , , , , , , , , , , , , , , , , , , , , , , , , , , , , , , , , , , , , , , , , , , ,
-171.80603344846,-279.395536795656,-107.589503347196,47.878972868947,-161.445726562547,-244.242812499536,-340.885531480342,-393.931263895215,-308.145077534916,225.600785122058,-32.1082650506314,-193.492520071426, , , , , , , , , , , , , , , , , , , , , , , , , , , , , , , , , , , , , , , , , , , , , , , , , , , , , , , , , , , , ,
-172.289850651804,-272.163080553244,-99.873229901441,49.3207746239659,-162.388537387171,-247.324706716649,-341.053270008459,-394.244910145154,-309.516376894032,222.226465602524,-36.2083103751809,-186.018155227342, , , , , , , , , , , , , , , , , , , , , , , , , , , , , , , , , , , , , , , , , , , , , , , , , , , , , , , , , , , , ,
-172.771572663883,-273.123412195897,-100.351839532015,50.7160181160833,-161.793033538349,-251.572976211716,-341.217607514674,-394.490932205815,-312.058382786892,222.94749242989,-36.2098665659336,-186.737625863956, , , , , , , , , , , , , , , , , , , , , , , , , , , , , , , , , , , , , , , , , , , , , , , , , , , , , , , , , , , , ,
-173.249477083913,-265.620876379445,-92.3713992955314,52.0552915827708,-161.743094477799,-259.591783870484,-341.371340014411,-395.206034211968,-313.029171898818,219.435176731679,-40.4390388941906,-178.996137837488, , , , , , , , , , , , , , , , , , , , , , , , , , , , , , , , , , , , , , , , , , , , , , , , , , , , , , , , , , , , ,
-173.724215995292,-258.537865928794,-84.8136499335022,53.3298689886135,-163.893300743187,-265.589745306351,-341.503905557101,-396.495286787879,-314.849345233483,216.131040962043,-44.4552830308945,-171.675757931148, , , , , , , , , , , , , , , , , , , , , , , , , , , , , , , , , , , , , , , , , , , , , , , , , , , , , , , , , , , , ,
-174.199389293439,-251.81306208669,-77.6136727932512,54.5327778415914,-163.240898179583,-265.386913914114,-342.423225608461,-397.582438267797,-315.549627449168,213.006225690064,-48.2928582500933,-164.71336743997, , , , , , , , , , , , , , , , , , , , , , , , , , , , , , , , , , , , , , , , , , , , , , , , , , , , , , , , , , , , ,
-174.681534276953,-245.390650255263,-70.7091159783104,55.6597218375951,-162.544732557292,-265.230609733667,-342.467032255858,-398.314513895302,-316.112973855392,210.036092266108,-51.986209149321,-158.049883116787, , , , , , , , , , , , , , , , , , , , , , , , , , , , , , , , , , , , , , , , , , , , , , , , , , , , , , , , , , , , ,
-175.179511472398,-246.999318333565,-71.8198068611676,56.7097879663455,-161.781708454961,-264.90835527325,-343.103606168611,-398.555687863335,-316.736363596858,211.089414902981,-51.6798523056147,-159.409562597366, , , , , , , , , , , , , , , , , , , , , , , , , , , , , , , , , , , , , , , , , , , , , , , , , , , , , , , , , , , , ,
-175.703356843069,-241.148031886036,-65.4446750429669,57.6858639476273,-161.22183060635,-264.563041695219,-342.973487776404,-398.244203655925,-317.31028376053,208.425694364553,-55.1293409000508,-153.296353464501, , , , , , , , , , , , , , , , , , , , , , , , , , , , , , , , , , , , , , , , , , , , , , , , , , , , , , , , , , , , ,
-176.262750181967,-241.160182240893,-64.8974320589265,58.5946932755033,-160.264388136744,-263.974224656684,-343.24051525791,-397.817404565988,-317.94512322274,208.71146621143,-55.6826590615198,-153.02880714991, , , , , , , , , , , , , , , , , , , , , , , , , , , , , , , , , , , , , , , , , , , , , , , , , , , , , , , , , , , , ,
-176.865307365159,-242.97550103202,-66.1101936668612,59.4465101375013,-159.210753193413,-263.436824390258,-342.943247208146,-397.272999874294,-317.976087788528,209.920404198589,-55.3775568491484,-154.54284734944, , , , , , , , , , , , , , , , , , , , , , , , , , , , , , , , , , , , , , , , , , , , , , , , , , , , , , , , , , , , ,
-177.514929909195,-244.700243796663,-67.1853138874677,60.2542233423685,-157.967348511763,-262.423906613636,-342.357295189274,-396.611412823309,-317.921342097212,211.107586852929,-55.1648080108634,-155.942778842065, , , , , , , , , , , , , , , , , , , , , , , , , , , , , , , , , , , , , , , , , , , , , , , , , , , , , , , , , , , , ,
-178.21043196079,-248.176313163615,-69.9658812028252,61.0321503223201,-157.062111256813,-261.376159339758,-342.786395471078,-395.83617061631,-317.888383279353,213.193372562202,-54.1222753789819,-159.07109718322, , , , , , , , , , , , , , , , , , , , , , , , , , , , , , , , , , , , , , , , , , , , , , , , , , , , , , , , , , , , ,
-178.944614746559,-249.634428087744,-70.6898133411844,61.794334951208,-155.463079018519,-259.805985159079,-341.780272438775,-394.954168036328,-317.739212454013,214.289521417151,-54.1274007026871,-160.162120714464, , , , , , , , , , , , , , , , , , , , , , , , , , , , , , , , , , , , , , , , , , , , , , , , , , , , , , , , , , , , ,
-179.703886147667,-250.91092856107,-71.207042413403,62.5525177627958,-153.832581241567,-258.256404317087,-340.774834893177,-393.975768306614,-317.579817605757,215.307407354368,-54.2484218671315,-161.058985487236, , , , , , , , , , , , , , , , , , , , , , , , , , , , , , , , , , , , , , , , , , , , , , , , , , , , , , , , , , , , ,
-180.468450053775,-252.050604382084,-71.5821543283093,63.3138675994151,-151.872433861548,-256.066806292792,-339.309278917763,-392.914710646577,-318.378452806906,216.25952721793,-54.4431478627326,-161.816379355197, , , , , , , , , , , , , , , , , , , , , , , , , , , , , , , , , , , , , , , , , , , , , , , , , , , , , , , , , , , , ,
-181.213033147397,-258.010448527757,-76.79741538036,64.0786284556883,-150.363227429689,-254.044827798163,-339.184775737239,-391.787807954058,-318.25276993113,219.611740837577,-52.2078088835181,-167.403931954058, , , , , , , , , , , , , , , , , , , , , , , , , , , , , , , , , , , , , , , , , , , , , , , , , , , , , , , , , , , , ,
-181.908078931361,-258.539773209241,-76.6316942778802,64.8378776649301,-148.147557748228,-251.298125479763,-337.308295667547,-390.614435201448,-318.157598991837,220.223926070301,-52.6381923267402,-167.585733743561, , , , , , , , , , , , , , , , , , , , , , , , , , , , , , , , , , , , , , , , , , , , , , , , , , , , , , , , , , , , ,
-182.521313659348,-258.761791249429,-76.2404775900812,65.5716257822361,-146.296887044097,-248.653489416151,-335.66521122343,-389.415824139497,-318.090954264628,220.641552454388,-53.1404180346329,-167.501134419755, , , , , , , , , , , , , , , , , , , , , , , , , , , , , , , , , , , , , , , , , , , , , , , , , , , , , , , , , , , , ,
-183.019570783703,-259.003217206427,-75.9836464227237,66.2475125988943,-144.080717126337,-245.58577320219,-333.544207875526,-388.214192200455,-318.041707716371,221.011393995065,-53.5179621804893,-167.493431814575, , , , , , , , , , , , , , , , , , , , , , , , , , , , , , , , , , , , , , , , , , , , , , , , , , , , , , , , , , , , ,
-183.370750969806,-260.772028701497,-77.4012777316915,66.8203659547478,-142.516163951482,-242.759948880887,-332.169031938105,-387.031745301135,-317.98964889638,222.071389835651,-52.9847366190568,-169.086653216594, , , , , , , , , , , , , , , , , , , , , , , , , , , , , , , , , , , , , , , , , , , , , , , , , , , , , , , , , , , , ,
-183.587183020626,-260.011065627047,-76.4238826064209,67.2328848967677,-140.716885489668,-239.808112218527,-330.591339088741,-385.8896055302,-317.906198810578,221.799124323837,-53.5816502071023,-168.217474116734, , , , , , , , , , , , , , , , , , , , , , , , , , , , , , , , , , , , , , , , , , , , , , , , , , , , , , , , , , , , ,
-183.561989972644,-258.94717418551,-75.3851842128659,67.4176770269082,-140.161428298973,-237.470907682882,-328.688309314316,-384.80672346569,-317.755800359541,221.254582079077,-54.0884028798887,-167.166179199188, , , , , , , , , , , , , , , , , , , , , , , , , , , , , , , , , , , , , , , , , , , , , , , , , , , , , , , , , , , , ,
-184.130379983755,-257.962666753661,-73.832286769906,67.3008127672026,-139.326945008979,-235.494367270165,-328.25210455716,-383.798840900088,-317.497988056487,221.046523368708,-55.1490466069241,-165.897476761783, , , , , , , , , , , , , , , , , , , , , , , , , , , , , , , , , , , , , , , , , , , , , , , , , , , , , , , , , , , , ,
-183.660730447927,-256.431893650311,-72.7711632023845,66.0476713287032,-139.377436270897,-233.911539536001,-327.01319586186,-382.877574112657,-317.090122164645,220.046312049119,-55.4447836227709,-164.601528426348, , , , , , , , , , , , , , , , , , , , , , , , , , , , , , , , , , , , , , , , , , , , , , , , , , , , , , , , , , , , ,
-182.964746350727,-254.773888776015,-71.8091424252885,64.364633272053,-140.091336125102,-233.253316426536,-326.782911227174,-382.049689888916,-316.490750537566,218.869317563371,-55.5778019627186,-163.291515600652, , , , , , , , , , , , , , , , , , , , , , , , , , , , , , , , , , , , , , , , , , , , , , , , , , , , , , , , , , , , ,
-182.311052738147,-255.503404642348,-73.1923519042015,62.1176335692507,-142.829601908901,-233.457748847167,-326.624271272269,-381.316644145762,-315.663526315512,218.907228690247,-54.5593504169721,-164.347878273274, , , , , , , , , , , , , , , , , , , , , , , , , , , , , , , , , , , , , , , , , , , , , , , , , , , , , , , , , , , , ,
-181.207606079941,-256.131524460447,-74.9239183805067,59.9927281893186,-145.545593625242,-234.797705042608,-328.872494433487,-380.674444386221,-314.581559344681,218.669565270194,-53.1418438497165,-165.527721420477, , , , , , , , , , , , , , , , , , , , , , , , , , , , , , , , , , , , , , , , , , , , , , , , , , , , , , , , , , , , ,
-180.540192693025,-254.708193980465,-74.1680012874399,57.4299806727402,-149.732774322044,-237.294981899485,-330.076102064846,-380.113880661236,-313.232020299052,217.624193336745,-53.1860957027924,-164.438097633952, , , , , , , , , , , , , , , , , , , , , , , , , , , , , , , , , , , , , , , , , , , , , , , , , , , , , , , , , , , , ,
-179.169775545196,-253.601383260225,-74.4316077150298,52.7344805362724,-154.550805280471,-242.157358445814,-332.203632042448,-379.621143727829,-311.62075766858,216.38557940271,-52.3690839150825,-164.016495487627, , , , , , , , , , , , , , , , , , , , , , , , , , , , , , , , , , , , , , , , , , , , , , , , , , , , , , , , , , , , ,
-177.836440958221,-255.217612118739,-77.381171160518,48.7393378988411,-160.813353051938,-246.98936969311,-334.953099034582,-379.178813993108,-309.776635511844,216.52702653848,-50.227634898851,-166.299391639628, , , , , , , , , , , , , , , , , , , , , , , , , , , , , , , , , , , , , , , , , , , , , , , , , , , , , , , , , , , , ,
-176.439748885635,-256.526560388766,-80.0868115031304,44.3852887871508,-167.357782863178,-252.808244104547,-338.07721264092,-378.767164646509,-307.755258347456,216.4831546372,-48.1764686912521,-168.306685945948, , , , , , , , , , , , , , , , , , , , , , , , , , , , , , , , , , , , , , , , , , , , , , , , , , , , , , , , , , , , ,
-175.150230041533,-257.048947260601,-81.8987172190687,40.1194972415494,-174.14721784649,-259.277561773199,-342.963724343799,-379.268927919038,-305.641720706035,216.099588651067,-46.6257564112315,-169.473832239835, , , , , , , , , , , , , , , , , , , , , , , , , , , , , , , , , , , , , , , , , , , , , , , , , , , , , , , , , , , , ,
-174.640227211507,-258.277996462173,-83.6377692506659,34.906932229777,-181.870733172837,-266.159450134228,-346.63381875063,-379.283058829815,-303.552004316084,216.45911183684,-45.5012289804203,-170.957882856419, , , , , , , , , , , , , , , , , , , , , , , , , , , , , , , , , , , , , , , , , , , , , , , , , , , , , , , , , , , , ,
-173.854658597381,-262.982647733704,-89.1279891363236,31.3266169602921,-187.970178217418,-272.623772777766,-351.587084685279,-378.845208362767,-301.632652260068,218.418653165542,-42.3633347305282,-176.055318435014, , , , , , , , , , , , , , , , , , , , , , , , , , , , , , , , , , , , , , , , , , , , , , , , , , , , , , , , , , , , ,
-173.477862241642,-267.135405381481,-93.6575431398397,27.9853448855445,-193.033668976468,-279.343000322696,-354.593668027548,-379.464227501748,-300.058389423034,220.306633811561,-39.9101595509004,-180.39647426066, , , , , , , , , , , , , , , , , , , , , , , , , , , , , , , , , , , , , , , , , , , , , , , , , , , , , , , , , , , , ,
-173.632771165397,-270.451657397056,-96.8188862316588,25.5074548305627,-195.815801813895,-283.162981340816,-357.00740835686,-378.936302130466,-299.027443183158,222.042214281226,-38.4069424668688,-183.635271814357, , , , , , , , , , , , , , , , , , , , , , , , , , , , , , , , , , , , , , , , , , , , , , , , , , , , , , , , , , , , ,
-174.386468221251,-274.272107986421,-99.8856397651703,25.7934212828929,-196.389927882155,-284.49516428088,-357.635108253118,-378.368392466219,-298.754446152264,224.329288103836,-37.25041422804,-187.078873875796, , , , , , , , , , , , , , , , , , , , , , , , , , , , , , , , , , , , , , , , , , , , , , , , , , , , , , , , , , , , ,
-176.291941670221,-280.799093979719,-104.507152309499,28.3214875036435,-192.558972724983,-282.203701880525,-357.07481745294,-377.984475500257,-299.46095644043,228.54551782497,-35.8923946803606,-192.653123144609, , , , , , , , , , , , , , , , , , , , , , , , , , , , , , , , , , , , , , , , , , , , , , , , , , , , , , , , , , , , ,
-178.526823470587,-287.011206288157,-108.48438281757,33.4544057163935,-184.860836816488,-275.944149408533,-354.278755611551,-377.326501822389,-301.363785668834,232.769014879372,-35.021220326508,-197.747794552864, , , , , , , , , , , , , , , , , , , , , , , , , , , , , , , , , , , , , , , , , , , , , , , , , , , , , , , , , , , , ,
-181.583078722418,-290.884384798583,-109.301306076166,40.6833044040765,-170.895103936298,-263.66596115121,-347.426871469946,-376.798166253759,-305.9258272498,236.2337317605,-36.1408863231257,-200.092845437374, , , , , , , , , , , , , , , , , , , , , , , , , , , , , , , , , , , , , , , , , , , , , , , , , , , , , , , , , , , , ,
-186.482925745395,-294.084313131141,-107.601387385747,52.5903168495387,-151.199167665948,-245.913258401647,-337.743108316449,-376.205622160347,-310.783643135857,240.283619438268,-39.4407691798232,-200.842850258444, , , , , , , , , , , , , , , , , , , , , , , , , , , , , , , , , , , , , , , , , , , , , , , , , , , , , , , , , , , , ,
-191.17700611978,-297.777959626508,-106.600953506729,68.3936357782347,-123.98794204116,-220.003627264035,-323.312932265084,-375.423694967336,-317.538488606516,244.477482873144,-42.2880263065252,-202.189456566618, , , , , , , , , , , , , , , , , , , , , , , , , , , , , , , , , , , , , , , , , , , , , , , , , , , , , , , , , , , , ,
-196.757539663847,-300.481745074639,-103.724205410792,88.1887413004785,-89.3640980408567,-187.416241343184,-305.506226091728,-374.532116217053,-325.800025082087,248.619642369243,-46.5166671265272,-202.102975242715, , , , , , , , , , , , , , , , , , , , , , , , , , , , , , , , , , , , , , , , , , , , , , , , , , , , , , , , , , , , ,
-202.779557988102,-298.998451281581,-96.2188932934794,112.612132249316,-46.9323245671571,-145.218545028973,-281.90840482247,-373.671135025549,-337.164649298109,250.889004634841,-53.2803323473107,-197.60867228753, , , , , , , , , , , , , , , , , , , , , , , , , , , , , , , , , , , , , , , , , , , , , , , , , , , , , , , , , , , , ,
-209.215085436208,-295.034273360686,-85.8191879244779,139.976958046705,3.28994591902216,-94.940190113269,-254.649672643681,-372.585602636186,-348.695307073132,252.124679398447,-61.6979487558646,-190.426730642582, , , , , , , , , , , , , , , , , , , , , , , , , , , , , , , , , , , , , , , , , , , , , , , , , , , , , , , , , , , , ,
-216.651555030224,-289.460344478448,-72.808789448224,170.874038744936,61.120832938143,-35.5063713979367,-221.538864427482,-371.344245593574,-362.486021796848,253.055949754335,-71.9213827909994,-181.134566963336, , , , , , , , , , , , , , , , , , , , , , , , , , , , , , , , , , , , , , , , , , , , , , , , , , , , , , , , , , , , ,
-223.11822399648,-282.627186166153,-59.5089621696736,204.957743143884,125.978015448973,31.7835327760664,-182.974946280477,-369.536721862167,-376.335397181212,252.872705081317,-81.8046309134028,-171.068074167913, , , , , , , , , , , , , , , , , , , , , , , , , , , , , , , , , , , , , , , , , , , , , , , , , , , , , , , , , , , , ,
-229.568672183296,-269.550369184004,-39.9816970007092,241.047966237289,197.140465466941,107.177514772186,-139.621767471849,-366.843403488515,-391.052503220343,249.55952068365,-94.7934875912928,-154.766033092357, , , , , , , , , , , , , , , , , , , , , , , , , , , , , , , , , , , , , , , , , , , , , , , , , , , , , , , , , , , , ,
-234.615232540352,-252.054737398058,-17.4395048577066,278.83964723999,273.438336481197,188.989770365983,-91.6773833322841,-363.047725854065,-405.27703979749,243.334984969205,-108.587863841322,-134.747121127882, , , , , , , , , , , , , , , , , , , , , , , , , , , , , , , , , , , , , , , , , , , , , , , , , , , , , , , , , , , , ,
-238.273367374024,-230.657997584793,7.61536978923047,317.479222898656,353.468151122958,276.654836123427,-41.2218171913184,-358.376563304746,-418.901745423872,234.465682479408,-122.944368581627,-111.521313897781, , , , , , , , , , , , , , , , , , , , , , , , , , , , , , , , , , , , , , , , , , , , , , , , , , , , , , , , , , , , ,
-240.156080991682,-205.594105636933,34.5619753547485,355.581217322825,435.333989839853,367.209642103063,14.61212826311,-350.867678479408,-430.468907082391,222.875093314307,-137.359028173215,-85.5160651410921, , , , , , , , , , , , , , , , , , , , , , , , , , , , , , , , , , , , , , , , , , , , , , , , , , , , , , , , , , , , ,
-239.464031321879,-176.390018386706,63.0740129351722,392.150883274247,517.527443569759,461.218022313751,72.5793199862698,-340.753206612539,-439.447354354548,207.927024854292,-151.269022128525,-56.6580027257667, , , , , , , , , , , , , , , , , , , , , , , , , , , , , , , , , , , , , , , , , , , , , , , , , , , , , , , , , , , , ,
-235.827450445199,-145.712302343765,90.1151481014338,425.894593518391,597.606900393019,555.517951064627,134.264910475045,-326.698110062804,-444.899127238415,190.769876394482,-162.971299273316,-27.7985771211654, , , , , , , , , , , , , , , , , , , , , , , , , , , , , , , , , , , , , , , , , , , , , , , , , , , , , , , , , , , , ,
-229.194352628268,-109.699656282706,119.494696345561,454.897245156446,673.440180195109,648.194160354056,197.472824619531,-308.278970092029,-444.456908976419,169.447004455487,-174.344524486914,4.89752003142743, , , , , , , , , , , , , , , , , , , , , , , , , , , , , , , , , , , , , , , , , , , , , , , , , , , , , , , , , , , , ,
-217.658779203869,-69.619958834849,148.03882036902,478.959651393427,742.436896233974,736.492516364576,262.804134563764,-285.444985765066,-438.418362399058,143.639369019359,-182.848799786444,39.2094307670856, , , , , , , , , , , , , , , , , , , , , , , , , , , , , , , , , , , , , , , , , , , , , , , , , , , , , , , , , , , , ,
-201.921482682038,-26.1586198515039,175.762862830534,495.302658587038,802.111358990942,818.075801778096,328.892286975479,-253.81829114185,-423.327954858346,114.040051266771,-188.842172756285,74.8021214895151, , , , , , , , , , , , , , , , , , , , , , , , , , , , , , , , , , , , , , , , , , , , , , , , , , , , , , , , , , , , ,
-180.249224056724,18.1383321705754,198.387556227299,502.700352511851,849.858888097732,891.593496904238,394.543038974493,-213.507408956306,-398.922043928702,81.0554459430743,-189.318390142011,108.262944198938, , , , , , , , , , , , , , , , , , , , , , , , , , , , , , , , , , , , , , , , , , , , , , , , , , , , , , , , , , , , ,
-152.71415549016,65.3482848953498,218.062440385509,500.824958781241,883.429880772495,955.194848257202,461.593583892636,-163.297934302647,-363.294334258481,43.6829352974049,-185.388297937834,141.70536264043, , , , , , , , , , , , , , , , , , , , , , , , , , , , , , , , , , , , , , , , , , , , , , , , , , , , , , , , , , , , ,
-119.191800746418,118.480168326083,237.671969072501,487.142070795548,900.226665163105,1005.66297475789,527.953351427671,-101.5428629844,-315.858789571994,0.355816210167333,-178.431884909459,178.076068699292, , , , , , , , , , , , , , , , , , , , , , , , , , , , , , , , , , , , , , , , , , , , , , , , , , , , , , , , , , , , ,
-78.644709098822,176.191297413645,254.836006512467,460.531975580836,897.855073673574,1041.87946081314,594.100663117438,-28.9569852555924,-253.974128358188,-48.7732941574116,-166.740357805644,215.513651963056, , , , , , , , , , , , , , , , , , , , , , , , , , , , , , , , , , , , , , , , , , , , , , , , , , , , , , , , , , , , ,
-31.6854229030731,238.161465473311,269.846888376384,420.480022304441,873.860587645331,1060.76237492084,658.796045376913,59.6605416351338,-177.816763926416,-103.238021285119,-150.766155639728,254.004176924848, , , , , , , , , , , , , , , , , , , , , , , , , , , , , , , , , , , , , , , , , , , , , , , , , , , , , , , , , , , , ,
22.947597639465,303.970335128677,281.022737489212,366.257981870754,827.060446372873,1062.71306730758,722.067973567373,163.809074526729,-84.9873797697564,-163.458966384071,-129.037569924873,292.496536308945, , , , , , , , , , , , , , , , , , , , , , , , , , , , , , , , , , , , , , , , , , , , , , , , , , , , , , , , , , , , ,
83.9080544410336,375.694489133295,291.786434692262,297.462804901907,757.281506297814,1044.57557752137,784.161516060969,282.064572545386,23.8535846185316,-229.801271787165,-103.939190125614,333.740461912779, , , , , , , , , , , , , , , , , , , , , , , , , , , , , , , , , , , , , , , , , , , , , , , , , , , , , , , , , , , , ,
152.612028834029,452.799964074424,300.187935240395,214.014876833976,664.445540013877,1007.72302185333,843.171414725503,418.891923195853,150.196883060772,-302.705996454227,-73.7879532031823,376.493949657409, , , , , , , , , , , , , , , , , , , , , , , , , , , , , , , , , , , , , , , , , , , , , , , , , , , , , , , , , , , , ,
227.901704885402,534.037698900291,306.135994014888,115.597579109607,546.081123100873,949.803201030076,900.315123922365,572.106095811049,292.750503267447,-380.969701892847,-39.1171445647427,420.08684645759, , , , , , , , , , , , , , , , , , , , , , , , , , , , , , , , , , , , , , , , , , , , , , , , , , , , , , , , , , , , ,
308.819651020552,622.004556103868,313.184905083316,3.96806835132286,404.656417465746,872.645995515395,954.055350247599,741.261487940708,451.871743311668,-465.41210356221,-2.18262703138174,467.594730593593, , , , , , , , , , , , , , , , , , , , , , , , , , , , , , , , , , , , , , , , , , , , , , , , , , , , , , , , , , , , ,
395.303620834318,714.829965732191,319.526344897873,-119.490729788766,241.954899572257,774.102109494235,1003.38341431718,924.840925032749,625.414738063333,-555.066793283255,37.8886379682232,517.178155315032, , , , , , , , , , , , , , , , , , , , , , , , , , , , , , , , , , , , , , , , , , , , , , , , , , , , , , , , , , , , ,
485.483602204197,811.550133989118,326.066531784921,-253.801418708626,63.3631565669699,658.508474928654,1047.47246558608,1120.99644029736,812.228637121771,-648.516868096657,79.7085352096384,568.808332887019, , , , , , , , , , , , , , , , , , , , , , , , , , , , , , , , , , , , , , , , , , , , , , , , , , , , , , , , , , , , ,
578.924172027679,907.989976965515,329.065804937836,-395.559790493476,-129.284250711903,525.363659725618,1084.71794966417,1326.48874712488,1009.3237378882,-743.457074496597,124.929183544922,618.527890951675, , , , , , , , , , , , , , , , , , , , , , , , , , , , , , , , , , , , , , , , , , , , , , , , , , , , , , , , , , , , ,
673.645115169474,1005.19460650362,331.549491334142,-542.89984281547,-332.282295214174,376.420671892317,1113.97293573792,1536.84440302923,1213.80924647994,-839.419860836545,171.047811917666,668.37204891888, , , , , , , , , , , , , , , , , , , , , , , , , , , , , , , , , , , , , , , , , , , , , , , , , , , , , , , , , , , , ,
766.981484087408,1101.77418128519,334.792697197783,-691.899735355608,-543.162100931554,212.322047963087,1133.24177702845,1750.40666657296,1421.36403200254,-934.3778326863,216.094393444813,718.283439241488, , , , , , , , , , , , , , , , , , , , , , , , , , , , , , , , , , , , , , , , , , , , , , , , , , , , , , , , , , , , ,
858.78097251554,1195.82214425068,337.041171735139,-838.961645011849,-755.197812871229,37.7313969512875,1140.66006750236,1958.967522886,1628.74226172349,-1027.30155838311,260.869900390201,766.431657992909, , , , , , , , , , , , , , , , , , , , , , , , , , , , , , , , , , , , , , , , , , , , , , , , , , , , , , , , , , , , ,
946.050932499065,1282.46942482781,336.418492328743,-980.302997249694,-965.242197364019,-146.308270919756,1134.06380056684,2160.22934011561,1830.79078822751,-1114.26017866344,304.816220085162,809.443958578276, , , , , , , , , , , , , , , , , , , , , , , , , , , , , , , , , , , , , , , , , , , , , , , , , , , , , , , , , , , , ,
1026.617716239,1357.65524455676,331.037528317766,-1112.09498464042,-1167.26491642426,-337.131906321454,1111.32577807491,2346.60934997795,2022.67081723191,-1192.13648039788,347.790093960617,844.346386437265, , , , , , , , , , , , , , , , , , , , , , , , , , , , , , , , , , , , , , , , , , , , , , , , , , , , , , , , , , , , ,
1098.29786916161,1419.74578334417,321.44791418256,-1230.61478172725,-1356.4652458962,-532.883602398982,1069.8337614613,2511.3605251901,2199.33161304987,-1259.02182625289,388.424977489526,870.596848763365, , , , , , , , , , , , , , , , , , , , , , , , , , , , , , , , , , , , , , , , , , , , , , , , , , , , , , , , , , , , ,
1158.97802832293,1464.779726813,305.801698490065,-1332.40452020799,-1528.52086008661,-730.658960561969,1008.47024759679,2648.97177428419,2355.82202620881,-1311.87887756796,426.588164916433,885.290712651531, , , , , , , , , , , , , , , , , , , , , , , , , , , , , , , , , , , , , , , , , , , , , , , , , , , , , , , , , , , , ,
1206.70014665438,1489.83422251346,283.134075859079,-1414.42899963001,-1679.21595620047,-927.024040099646,924.566267814661,2753.84270138698,2487.44965121138,-1348.26718458392,461.783035397653,886.484149186272, , , , , , , , , , , , , , , , , , , , , , , , , , , , , , , , , , , , , , , , , , , , , , , , , , , , , , , , , , , , ,
1239.74804314367,1490.14019194035,250.392148796686,-1474.22337155531,-1805.34261505977,-1122.0788287236,817.854003924226,2819.70893327224,2589.97626132335,-1364.94411754201,494.677947173491,870.266170368519, , , , , , , , , , , , , , , , , , , , , , , , , , , , , , , , , , , , , , , , , , , , , , , , , , , , , , , , , , , , ,
1256.7309782318,1466.71525401818,209.984275786378,-1510.02172821938,-1904.80621617219,-1310.63258319218,686.421543416332,2843.24415455903,2659.80734648703,-1361.72311612499,523.373351222714,838.34976490228, , , , , , , , , , , , , , , , , , , , , , , , , , , , , , , , , , , , , , , , , , , , , , , , , , , , , , , , , , , , ,
1256.65981642451,1418.7466419509,162.086825526391,-1520.8577046758,-1977.56148031094,-1492.4845368885,531.355903937537,2819.21410819197,2694.16629734953,-1337.7032291877,547.286495449059,790.416733738645, , , , , , , , , , , , , , , , , , , , , , , , , , , , , , , , , , , , , , , , , , , , , , , , , , , , , , , , , , , , ,
1239.01129272429,1348.3448195751,109.33352685081,-1506.59295210612,-2026.01102596743,-1667.47601826804,352.407730376077,2745.30892747617,2691.24384249015,-1293.6780561497,564.838882936741,728.839173212956, , , , , , , , , , , , , , , , , , , , , , , , , , , , , , , , , , , , , , , , , , , , , , , , , , , , , , , , , , , , ,
1203.77595344938,1254.83783519786,51.061881748488,-1468.08302754627,-2091.45424334051,-1831.84937143257,150.429170203097,2624.91194785028,2650.31367631541,-1229.30689432362,576.357035850445,652.949858473177, , , , , , , , , , , , , , , , , , , , , , , , , , , , , , , , , , , , , , , , , , , , , , , , , , , , , , , , , , , , ,
1151.48559255145,1139.82741899927,-11.6581735521778,-1406.79535591766,-2116.24670199043,-1986.76481888714,-71.4867747546666,2455.74776043587,2571.80598120257,-1145.65650577536,581.571883051815,564.084622723548, , , , , , , , , , , , , , , , , , , , , , , , , , , , , , , , , , , , , , , , , , , , , , , , , , , , , , , , , , , , ,
1083.21658142416,1005.01397411348,-78.202607310683,-1324.72049786541,-2103.60512256242,-2132.57446234103,-311.043140202116,2238.1706768046,2457.33194849,-1044.11527776882,580.709594367421,463.405683401396, , , , , , , , , , , , , , , , , , , , , , , , , , , , , , , , , , , , , , , , , , , , , , , , , , , , , , , , , , , , ,
1000.5664995473,856.358364649584,-144.208134897717,-1226.18721500729,-2069.61337597269,-2267.350444891,-564.608010128109,1980.6639464385,2309.65453930489,-928.462432098442,572.387317222509,356.075114875934, , , , , , , , , , , , , , , , , , , , , , , , , , , , , , , , , , , , , , , , , , , , , , , , , , , , , , , , , , , , ,
905.602972155626,696.90714139781,-208.695830757816,-1114.24294807914,-2005.06664239423,-2389.27060403696,-827.845220436593,1688.14179831499,2132.60356370887,-801.255056776718,557.149401456722,244.105655319997, , , , , , , , , , , , , , , , , , , , , , , , , , , , , , , , , , , , , , , , , , , , , , , , , , , , , , , , , , , , ,
800.785588905871,530.418698371376,-270.366890534495,-992.746143415073,-1919.51722378294,-2500.86250672618,-1095.8230027933,1365.49656885506,1930.93655255784,-665.602143638624,535.576239720183,130.025903918441, , , , , , , , , , , , , , , , , , , , , , , , , , , , , , , , , , , , , , , , , , , , , , , , , , , , , , , , , , , , ,
688.864063924246,361.050515818517,-327.813548105729,-865.75098551717,-1824.67411332159,-2600.07135170961,-1363.16242534565,1025.57989432192,1710.1506144878,-524.957289871381,508.338806014988,16.6184838563941, , , , , , , , , , , , , , , , , , , , , , , , , , , , , , , , , , , , , , , , , , , , , , , , , , , , , , , , , , , , ,
572.758080431132,195.070285976762,-377.68779445437,-737.217112628366,-1723.92380949092,-2686.62706984044,-1624.22164180651,671.417890682525,1476.25415760738,-383.914183203947,475.222937442752,-91.3087542388039, , , , , , , , , , , , , , , , , , , , , , , , , , , , , , , , , , , , , , , , , , , , , , , , , , , , , , , , , , , , ,
455.426112550074,37.5210389518683,-417.905073598206,-610.807379773459,-1620.2428405972,-2760.5482452888,-1873.30848073179,317.230236133479,1235.51056127517,-246.473575750971,436.66559307414,-190.192017323169, , , , , , , , , , , , , , , , , , , , , , , , , , , , , , , , , , , , , , , , , , , , , , , , , , , , , , , , , , , , ,
339.731600659804,-106.86876521529,-446.600365875094,-489.708971335739,-1516.17619212195,-2821.19928742273,-2104.91086101751,-30.3904587057386,994.168206498213,-116.431417722257,393.165983267449,-276.734565545192, , , , , , , , , , , , , , , , , , , , , , , , , , , , , , , , , , , , , , , , , , , , , , , , , , , , , , , , , , , , ,
228.315105214088,-236.33933319416,-464.654438408247,-376.490180959947,-1413.74334489905,-2867.94665224259,-2313.93227044327,-362.49218249855,758.192512669417,4.01211399003576,346.484771811168,-350.496885801203, , , , , , , , , , , , , , , , , , , , , , , , , , , , , , , , , , , , , , , , , , , , , , , , , , , , , , , , , , , , ,
123.480608858443,-349.05085548554,-472.531464343983,-273.002471935162,-1314.27759682844,-2899.9371677319,-2495.91826177133,-671.537829400711,533.015750826967,112.785123313548,298.006036601214,-410.791159914761, , , , , , , , , , , , , , , , , , , , , , , , , , , , , , , , , , , , , , , , , , , , , , , , , , , , , , , , , , , , ,
27.1031257258291,-444.232498984155,-471.335624709984,-180.333911946332,-1215.65946379781,-2916.3348195961,-2647.25970345075,-950.831340495758,323.319419975358,208.564686629163,249.219375217907,-457.784061847069, , , , , , , , , , , , , , , , , , , , , , , , , , , , , , , , , , , , , , , , , , , , , , , , , , , , , , , , , , , , ,
-59.4367167338973,-518.950070070319,-459.513353336422,-98.8159597240415,-1117.42783851314,-2916.42805386857,-2765.35938030187,-1195.08357189486,132.861910890958,289.193393402108,200.038318301263,-489.23171170337, , , , , , , , , , , , , , , , , , , , , , , , , , , , , , , , , , , , , , , , , , , , , , , , , , , , , , , , , , , , ,
-135.287398208363,-573.094357237433,-437.80695902907,-28.0811483852302,-1021.94807918099,-2899.74437173535,-2848.75039450398,-1400.59557072767,-35.6388682934362,354.190877722898,151.259780410354,-505.450658133251, , , , , , , , , , , , , , , , , , , , , , , , , , , , , , , , , , , , , , , , , , , , , , , , , , , , , , , , , , , , ,
-200.12910652259,-608.947678792004,-408.818572269414,32.8350998116609,-923.187745909336,-2866.15939079365,-2897.15758393685,-1565.35194554106,-180.562083800969,404.538392657297,104.344732873412,-508.883125530709, , , , , , , , , , , , , , , , , , , , , , , , , , , , , , , , , , , , , , , , , , , , , , , , , , , , , , , , , , , , ,
-254.145265296816,-629.095960085099,-374.950694788283,85.3589399326281,-829.4981201605,-2815.98751676404,-2911.49674287167,-1689.02069729389,-301.378306288035,441.620612690958,60.4027147457338,-502.023327436691, , , , , , , , , , , , , , , , , , , , , , , , , , , , , , , , , , , , , , , , , , , , , , , , , , , , , , , , , , , , ,
-297.966363762077,-636.286582566666,-338.32021880459,131.22177319105,-737.52413192935,-2750.04274805611,-2927.89407696429,-1772.86238830281,-398.584491129135,467.126473164371,20.1769275212571,-487.303400685628, , , , , , , , , , , , , , , , , , , , , , , , , , , , , , , , , , , , , , , , , , , , , , , , , , , , , , , , , , , , ,
-332.591351524026,-631.377193851509,-298.785842327484,172.297109914219,-638.978061072806,-2669.66077285761,-2883.33112556435,-1819.55765699481,-473.586510248891,481.984272687767,-16.9027545982706,-465.081518089497, , , , , , , , , , , , , , , , , , , , , , , , , , , , , , , , , , , , , , , , , , , , , , , , , , , , , , , , , , , , ,
-363.688367202207,-616.992100249089,-253.303733046883,210.444145723506,-540.322514731228,-2576.67721706844,-2811.55582011926,-1843.52654971566,-528.539394106346,490.340233725648,-55.1923170776615,-435.147916647986, , , , , , , , , , , , , , , , , , , , , , , , , , , , , , , , , , , , , , , , , , , , , , , , , , , , , , , , , , , , ,
-383.910378950427,-597.373563163068,-213.463184212641,247.369658870337,-447.575258556987,-2473.36142453308,-2718.07572311502,-1831.41437728112,-568.630109116011,490.641971056748,-85.2235973688927,-405.418373687854, , , , , , , , , , , , , , , , , , , , , , , , , , , , , , , , , , , , , , , , , , , , , , , , , , , , , , , , , , , , ,
-398.453291748382,-576.224943521805,-177.771651773423,284.516845285249,-345.556365332895,-2362.31007046884,-2608.84607179778,-1804.01537282441,-594.972131881813,487.339117635093,-110.340819987479,-376.998297647614, , , , , , , , , , , , , , , , , , , , , , , , , , , , , , , , , , , , , , , , , , , , , , , , , , , , , , , , , , , , ,
-410.208060771687,-556.142636595639,-145.934575823952,322.986204021718,-243.299707758688,-2246.30955115555,-2487.76277014886,-1743.62473465815,-606.696946165034,483.175348683663,-132.136742473867,-351.038606209795, , , , , , , , , , , , , , , , , , , , , , , , , , , , , , , , , , , , , , , , , , , , , , , , , , , , , , , , , , , , ,
-419.423076025245,-537.437406347741,-118.014330322497,363.490163485848,-141.749564028115,-2128.17970022777,-2358.72271998973,-1671.35730435468,-610.684222247288,478.430241186493,-150.704372851373,-327.725868335119, , , , , , , , , , , , , , , , , , , , , , , , , , , , , , , , , , , , , , , , , , , , , , , , , , , , , , , , , , , , ,
-428.037266338437,-523.86747421063,-95.8302078721938,406.340205458509,-42.047236209788,-2033.29609780394,-2227.20810853042,-1593.97024091457,-608.599680215874,475.952370274533,-166.103529233121,-309.848841041412, , , , , , , , , , , , , , , , , , , , , , , , , , , , , , , , , , , , , , , , , , , , , , , , , , , , , , , , , , , , ,
-436.178072963806,-517.639855448737,-81.4617824849317,451.462948557352,46.7872657357615,-1913.92233941023,-2100.7984313143,-1514.95062115977,-605.707722217893,476.908964206271,-177.358145239437,-299.550818966834, , , , , , , , , , , , , , , , , , , , , , , , , , , , , , , , , , , , , , , , , , , , , , , , , , , , , , , , , , , , ,
-444.579477860318,-517.974200738761,-73.3947228784432,498.440005752706,139.261150374586,-1802.68453474539,-1976.08464244287,-1437.64397390009,-602.133865982919,481.276839299539,-185.592377490937,-295.684461808602, , , , , , , , , , , , , , , , , , , , , , , , , , , , , , , , , , , , , , , , , , , , , , , , , , , , , , , , , , , , ,
-454.449957891908,-523.667838965027,-69.2178810731194,546.565452798298,226.494326280884,-1696.75718400079,-1863.7945649619,-1363.87051416403,-600.031823243596,489.058898428467,-192.616038409394,-296.442860019073, , , , , , , , , , , , , , , , , , , , , , , , , , , , , , , , , , , , , , , , , , , , , , , , , , , , , , , , , , , , ,
-465.18208349106,-536.198069625001,-71.0159861339406,594.914474799276,307.431769844685,-1596.93848706851,-1756.17956362226,-1295.46654974341,-600.543377686526,500.69007655803,-197.083048678559,-303.60702787947, , , , , , , , , , , , , , , , , , , , , , , , , , , , , , , , , , , , , , , , , , , , , , , , , , , , , , , , , , , , ,
-476.346802642822,-555.139398917317,-78.7925962744949,642.41716384617,381.406093765923,-1506.07568972373,-1663.05847468924,-1236.50457461356,-603.620477272926,515.74310078007,-198.777103184163,-316.965997595906, , , , , , , , , , , , , , , , , , , , , , , , , , , , , , , , , , , , , , , , , , , , , , , , , , , , , , , , , , , , ,
-487.901095338236,-579.99059768376,-92.0895023455239,687.932373458006,448.010613828663,-1426.04100356225,-1576.35588405739,-1186.20157474025,-609.780510855934,533.945846510998,-197.905796496356,-336.040050014642, , , , , , , , , , , , , , , , , , , , , , , , , , , , , , , , , , , , , , , , , , , , , , , , , , , , , , , , , , , , ,
-498.886902070467,-607.756051991617,-108.869149921151,730.317760257145,507.093435429286,-1352.75316643525,-1501.38065707838,-1145.22677850308,-617.675048316197,553.321477031042,-195.008876074658,-358.312600956384, , , , , , , , , , , , , , , , , , , , , , , , , , , , , , , , , , , , , , , , , , , , , , , , , , , , , , , , , , , , ,
-508.935134573092,-637.910548054238,-128.975413481147,768.493388424607,558.73013348001,-1286.22626605402,-1433.92936636386,-1111.0636080539,-627.783099210599,573.422841313665,-189.979860545972,-383.442980767692, , , , , , , , , , , , , , , , , , , , , , , , , , , , , , , , , , , , , , , , , , , , , , , , , , , , , , , , , , , , ,
-515.597258944471,-668.936316072271,-153.339057127801,801.497281842439,598.055534837358,-1224.58882321624,-1374.05615417229,-1082.49257026313,-638.708452472403,592.266787508371,-181.129100908335,-411.137686600036, , , , , , , , , , , , , , , , , , , , , , , , , , , , , , , , , , , , , , , , , , , , , , , , , , , , , , , , , , , , ,
-521.325813518029,-699.102644623081,-177.776831105052,829.273975304383,630.482710725509,-1166.06711945452,-1319.8708855142,-1058.18015327069,-648.614691286256,610.214229070555,-171.774491206488,-438.439737864066, , , , , , , , , , , , , , , , , , , , , , , , , , , , , , , , , , , , , , , , , , , , , , , , , , , , , , , , , , , , ,
-523.778037340931,-726.960605544426,-203.182568203495,849.742695311254,660.482220072905,-1109.91701863072,-1268.63679346748,-1036.23708536697,-657.697640784954,625.369321442678,-160.297734568717,-465.07158687396, , , , , , , , , , , , , , , , , , , , , , , , , , , , , , , , , , , , , , , , , , , , , , , , , , , , , , , , , , , , ,
-522.833162374752,-752.059312677668,-229.226150302916,863.27522300561,682.074009852808,-1054.91046902311,-1218.87089982118,-1014.94751874701,-664.182799229262,637.44623752621,-146.803506035917,-490.642731490292, , , , , , , , , , , , , , , , , , , , , , , , , , , , , , , , , , , , , , , , , , , , , , , , , , , , , , , , , , , , ,
-518.006854378493,-773.406046438319,-255.399192059826,870.481980133522,698.461019070366,-1000.35037144707,-1168.83368023177,-992.957158315842,-667.008455552638,645.706450408406,-131.303831159333,-514.402619249072, , , , , , , , , , , , , , , , , , , , , , , , , , , , , , , , , , , , , , , , , , , , , , , , , , , , , , , , , , , , ,
-508.989837215772,-789.091835363485,-280.101998147713,870.005619142623,711.157305166304,-943.864292558995,-1117.75608146456,-968.728314147812,-666.187035428642,649.040836289628,-114.443919534029,-534.596916755599, , , , , , , , , , , , , , , , , , , , , , , , , , , , , , , , , , , , , , , , , , , , , , , , , , , , , , , , , , , , ,
-496.179266562536,-796.441011587451,-300.261745024915,862.883233928989,718.619266202347,-887.042377902304,-1064.14257789957,-941.768658791122,-660.831917976368,646.310139074993,-97.9587607688104,-548.351378306182, , , , , , , , , , , , , , , , , , , , , , , , , , , , , , , , , , , , , , , , , , , , , , , , , , , , , , , , , , , , ,
-479.61541727369,-797.19306802882,-317.577650755131,849.659482602308,722.643909562489,-828.010964410147,-1008.33901191561,-911.076613015172,-650.800948489825,638.404242651255,-81.0188832592789,-557.385359391975, , , , , , , , , , , , , , , , , , , , , , , , , , , , , , , , , , , , , , , , , , , , , , , , , , , , , , , , , , , , ,
-459.665019240682,-791.35016676969,-331.685147529008,831.016888125228,723.621339130693,-766.131437559712,-949.731312969557,-876.356049987985,-635.604677745069,625.507593005186,-63.9899358558365,-561.517657149349, , , , , , , , , , , , , , , , , , , , , , , , , , , , , , , , , , , , , , , , , , , , , , , , , , , , , , , , , , , , ,
-436.818524289929,-779.185694217934,-342.367169928005,807.746401333668,721.872117083282,-702.501823611887,-887.678457475564,-837.995077074827,-616.475255578884,608.002109253931,-47.2256771809612,-560.776432072969, , , , , , , , , , , , , , , , , , , , , , , , , , , , , , , , , , , , , , , , , , , , , , , , , , , , , , , , , , , , ,
-411.222176454618,-761.207225022887,-349.985048568269,780.697017490961,717.640555447056,-636.958353312951,-823.84899748235,-796.056754572636,-593.249588502483,586.214700738752,-30.6185639431739,-555.596136795578, , , , , , , , , , , , , , , , , , , , , , , , , , , , , , , , , , , , , , , , , , , , , , , , , , , , , , , , , , , , ,
-383.924208910425,-738.109890622171,-354.185681711746,750.726940201731,711.091450952584,-571.142748809771,-758.331453023866,-751.039339538288,-566.764942662447,561.017049766298,-14.8692635993388,-546.147786166958, , , , , , , , , , , , , , , , , , , , , , , , , , , , , , , , , , , , , , , , , , , , , , , , , , , , , , , , , , , , ,
-356.080316916696,-712.810356644293,-356.730039727597,718.771774378403,702.311319280842,-504.942845633961,-691.271837950773,-703.659304279945,-537.247268692417,534.445336780494,0.324861405451173,-534.770198185945, , , , , , , , , , , , , , , , , , , , , , , , , , , , , , , , , , , , , , , , , , , , , , , , , , , , , , , , , , , , ,
-327.882755179903,-682.216793695143,-354.33403851524,686.287965903024,691.314912608698,-439.151563473157,-624.629424318158,-654.756152454204,-506.195310705049,505.049774437523,13.2256416676688,-518.275416105192, , , , , , , , , , , , , , , , , , , , , , , , , , , , , , , , , , , , , , , , , , , , , , , , , , , , , , , , , , , , ,
-299.516597987305,-649.020023259827,-349.503425272522,652.197102289109,678.319656622013,-374.530284643887,-558.414600094119,-605.234180987229,-474.042854174739,474.268310623566,24.9934136426088,-499.261724266174, , , , , , , , , , , , , , , , , , , , , , , , , , , , , , , , , , , , , , , , , , , , , , , , , , , , , , , , , , , , ,
-272.412857074967,-614.312762618751,-341.899905543784,617.973132367989,663.248461858697,-312.202858767318,-494.424850078435,-556.007787891255,-441.56993970444,443.362809846859,34.7435242344086,-478.106334081267, , , , , , , , , , , , , , , , , , , , , , , , , , , , , , , , , , , , , , , , , , , , , , , , , , , , , , , , , , , , ,
-246.243496360937,-580.936572310982,-334.693075950044,584.579975334277,645.713344893909,-252.871842118555,-433.056975851685,-507.952816939636,-409.506544968669,413.590034335959,44.224789794554,-457.814824130513, , , , , , , , , , , , , , , , , , , , , , , , , , , , , , , , , , , , , , , , , , , , , , , , , , , , , , , , , , , , ,
-222.154038972198,-547.920988763964,-325.766949791767,552.04409735933,625.769166661017,-197.298026735903,-375.131854050568,-461.865705837264,-378.505275654832,385.037513868081,51.806455409785,-436.843969277866, , , , , , , , , , , , , , , , , , , , , , , , , , , , , , , , , , , , , , , , , , , , , , , , , , , , , , , , , , , , ,
-200.064606969852,-513.972295030982,-313.90768806113,519.567264855346,603.377856001317,-146.128964204138,-321.241694488895,-418.431504399746,-349.121051684136,357.018451000417,56.9215405456393,-413.939991546056, , , , , , , , , , , , , , , , , , , , , , , , , , , , , , , , , , , , , , , , , , , , , , , , , , , , , , , , , , , , ,
-179.380016338672,-480.899537350102,-301.51952101143,488.048131773776,577.486056727462,-99.872057679105,-271.985388708263,-378.201214795033,-321.797890160666,330.139776844387,61.0697523363791,-391.209529180766, , , , , , , , , , , , , , , , , , , , , , , , , , , , , , , , , , , , , , , , , , , , , , , , , , , , , , , , , , , , ,
-161.23239801922,-449.584813438763,-288.352415419543,457.547622655469,549.577267351847,-58.87548829878,-227.660979893744,-341.578410616551,-296.862516629231,305.408605728991,63.5600087001622,-368.968614429153, , , , , , , , , , , , , , , , , , , , , , , , , , , , , , , , , , , , , , , , , , , , , , , , , , , , , , , , , , , , ,
-145.953801209621,-422.109285125999,-276.155483916378,428.08475641784,518.997759307848,-23.3174824159871,-188.444395476666,-308.814696042243,-274.524250833501,284.03154316781,65.1008413533789,-349.132384521188, , , , , , , , , , , , , , , , , , , , , , , , , , , , , , , , , , , , , , , , , , , , , , , , , , , , , , , , , , , , ,
-132.92351643681,-395.549191996678,-262.625675559868,400.245374675808,486.739730464113,6.79575339550371,-154.155844787131,-280.013227145954,-254.880389018256,264.236354216744,64.8510795615293,-329.087433778273, , , , , , , , , , , , , , , , , , , , , , , , , , , , , , , , , , , , , , , , , , , , , , , , , , , , , , , , , , , , ,
-122.010489677707,-370.811253448622,-248.800763770916,372.863489841555,453.715252931197,31.6234009270123,-124.917517686002,-255.139215475325,-237.926126850609,246.410871563165,63.3951370466046,-309.806008609769, , , , , , , , , , , , , , , , , , , , , , , , , , , , , , , , , , , , , , , , , , , , , , , , , , , , , , , , , , , , ,
-113.031486434246,-348.372239065666,-235.340752631421,346.547009275484,419.739938900989,51.4751062066535,-100.475379959327,-234.036086848413,-223.567940256259,230.701862749956,61.1546330985882,-291.856495848544, , , , , , , , , , , , , , , , , , , , , , , , , , , , , , , , , , , , , , , , , , , , , , , , , , , , , , , , , , , , ,
-105.765617190086,-329.995627034779,-224.230009844693,321.58951030687,385.066112066844,66.7886961721038,-79.4754231418472,-216.445802702221,-211.639282120455,217.880622112432,59.2321963273042,-277.112818439736, , , , , , , , , , , , , , , , , , , , , , , , , , , , , , , , , , , , , , , , , , , , , , , , , , , , , , , , , , , , ,
-99.9687802558982,-314.266665088973,-214.297884833075,297.86817847965,351.320693695206,78.1887277626655,-63.2168845749908,-202.031780122604,-201.395715308965,207.117722672435,57.1645522885888,-264.282274961024, , , , , , , , , , , , , , , , , , , , , , , , , , , , , , , , , , , , , , , , , , , , , , , , , , , , , , , , , , , , ,
-95.3873673300942,-299.458397519157,-204.071030189063,275.175357396889,315.45502262285,86.3414599023884,-49.7201859609057,-190.402871670777,-193.619017396186,197.422882424625,54.3418314294848,-251.76471385411, , , , , , , , , , , , , , , , , , , , , , , , , , , , , , , , , , , , , , , , , , , , , , , , , , , , , , , , , , , , ,
-91.7706567676037,-286.252157783134,-194.48150101553,253.913988075905,281.089517088927,91.6887673758339,-39.0635381581891,-181.136985116072,-186.899797685596,189.011407275368,51.3554221239637,-240.366829399332, , , , , , , , , , , , , , , , , , , , , , , , , , , , , , , , , , , , , , , , , , , , , , , , , , , , , , , , , , , , ,
-88.8814216739082,-273.698315149429,-184.816893475521,235.532268546244,248.876846600878,94.9773410315598,-31.0744657018646,-173.803124817101,-182.152438323234,181.289868411668,47.9677359008068,-229.257604312475, , , , , , , , , , , , , , , , , , , , , , , , , , , , , , , , , , , , , , , , , , , , , , , , , , , , , , , , , , , , ,
-86.5044122759567,-262.512318401491,-176.007906125534,217.654958609911,219.375989069499,96.6613451346088,-24.3291325261056,-167.938018190433,-177.768678798921,174.508365338724,44.7517469247893,-219.260112263512, , , , , , , , , , , , , , , , , , , , , , , , , , , , , , , , , , , , , , , , , , , , , , , , , , , , , , , , , , , , ,
-84.4525258916929,-252.633778595116,-168.181252703424,201.379059129127,193.021951364706,97.3355550402611,-19.179260331052,-163.136564018725,-174.915712348401,168.543152243404,41.8643634058658,-210.40751564927, , , , , , , , , , , , , , , , , , , , , , , , , , , , , , , , , , , , , , , , , , , , , , , , , , , , , , , , , , , , ,
-82.570636735042,-246.237229004181,-163.666592269139,186.910476480953,170.106179817797,97.5449854637627,-13.6424821962451,-159.19346011086,-171.983303067734,164.403932869611,40.5479777670491,-204.95191063666, , , , , , , , , , , , , , , , , , , , , , , , , , , , , , , , , , , , , , , , , , , , , , , , , , , , , , , , , , , , ,
-80.7372030945088,-239.714022550831,-158.976819456323,175.693348266854,150.768499020735,97.8342385013302,-9.46506997424805,-155.711949428923,-170.052275829088,160.22561282267,39.1198081809073,-199.345421003577, , , , , , , , , , , , , , , , , , , , , , , , , , , , , , , , , , , , , , , , , , , , , , , , , , , , , , , , , , , , ,
-78.8638857947149,-232.852207773775,-153.98832197906,165.428606820041,135.00008446612,98.2777321933284,-5.24236686564839,-152.436764471529,-168.087289965306,155.858046784245,37.5622180921731,-193.420264876417, , , , , , , , , , , , , , , , , , , , , , , , , , , , , , , , , , , , , , , , , , , , , , , , , , , , , , , , , , , , ,
-76.8934941532799,-226.730755373948,-149.837261220669,156.233833510949,122.655979895408,99.3086162436192,-1.16853988215698,-149.170797791736,-166.367918106529,151.812124763614,36.4718835336949,-188.284008297308, , , , , , , , , , , , , , , , , , , , , , , , , , , , , , , , , , , , , , , , , , , , , , , , , , , , , , , , , , , , ,
-74.796626609655,-222.497137085005,-147.700510475351,148.601236711086,113.475056528172,100.93813408384,3.75341289921093,-145.770506373101,-164.051743325471,148.64688184733,36.4519419328483,-185.098823780178, , , , , , , , , , , , , , , , , , , , , , , , , , , , , , , , , , , , , , , , , , , , , , , , , , , , , , , , , , , , ,
-72.5673953094409,-217.529864353364,-144.962469043923,142.443122270793,107.105037126007,103.305011891065,8.46029323322696,-142.141870296375,-161.64183834358,145.048629831402,36.1975368672417,-181.246166698643, , , , , , , , , , , , , , , , , , , , , , , , , , , , , , , , , , , , , , , , , , , , , , , , , , , , , , , , , , , , ,
-70.2186194063388,-212.999979310409,-142.781359904071,137.437680312351,103.130197360914,106.414352459087,13.5521926195169,-138.234429129002,-159.53201768564,141.609299358374,36.2813702488665,-177.89066960724, , , , , , , , , , , , , , , , , , , , , , , , , , , , , , , , , , , , , , , , , , , , , , , , , , , , , , , , , , , , ,
-67.7768469102701,-208.82943666399,-141.05258975372,133.460298397842,101.099537662565,110.218921075741,19.0126209584104,-134.034057354377,-157.227690510938,138.30314178713,36.6378714217256,-174.941013208855, , , , , , , , , , , , , , , , , , , , , , , , , , , , , , , , , , , , , , , , , , , , , , , , , , , , , , , , , , , , ,
-65.2775262075386,-204.950863622706,-139.673337415168,131.204427593161,100.553531406078,114.632597650932,24.7924166547802,-129.55512231703,-154.735957639863,135.114194915122,37.1979056038151,-172.312100518937, , , , , , , , , , , , , , , , , , , , , , , , , , , , , , , , , , , , , , , , , , , , , , , , , , , , , , , , , , , , ,
-62.7605977957771,-201.30695985037,-138.546362054593,130.064939771945,101.047947921337,119.543596556384,30.8208377978758,-124.832602735987,-152.079816057108,132.033778823073,37.8928821294083,-169.926660952481, , , , , , , , , , , , , , , , , , , , , , , , , , , , , , , , , , , , , , , , , , , , , , , , , , , , , , , , , , , , ,
-60.2667144474343,-197.849876466266,-137.583162018832,128.008257868542,102.17367426142,124.82674507336,37.0158126943035,-119.914647565459,-149.293047804189,129.05829545685,38.658223785699,-167.716519242548, , , , , , , , , , , , , , , , , , , , , , , , , , , , , , , , , , , , , , , , , , , , , , , , , , , , , , , , , , , , ,
-57.8342257888216,-194.54061047673,-136.706384687909,126.245017815081,103.57188213751,130.354286908022,43.2928539925795,-114.855941484597,-146.4154649464,126.187418132776,39.436079449544,-165.623497582319, , , , , , , , , , , , , , , , , , , , , , , , , , , , , , , , , , , , , , , , , , , , , , , , , , , , , , , , , , , , ,
-55.496983072392,-191.348429865958,-135.851446793566,124.804837560975,104.944283037374,136.004845539916,49.5723082382473,-109.712126641628,-143.488694970764,123.422706469175,40.1772318605876,-163.599938329762, , , , , , , , , , , , , , , , , , , , , , , , , , , , , , , , , , , , , , , , , , , , , , , , , , , , , , , , , , , , ,
-53.2829357013942,-188.250314205242,-134.967378503849,123.237210358741,106.058567786265,141.670339211703,55.7847739930408,-104.535416100074,-140.552630367423,120.766624953318,40.8422214012276,-161.608846354545, , , , , , , , , , , , , , , , , , , , , , , , , , , , , , , , , , , , , , , , , , , , , , , , , , , , , , , , , , , , ,
-51.2134141003766,-185.230368703428,-134.016954603052,121.623157071205,106.749420010181,147.260786611538,61.8746680214021,-99.3714279422683,-137.642615298544,118.221891401902,41.4017702513379,-159.62366165324, , , , , , , , , , , , , , , , , , , , , , , , , , , , , , , , , , , , , , , , , , , , , , , , , , , , , , , , , , , , ,
-49.3029397283858,-182.27915565554,-132.976215927154,119.900473589692,106.915714004621,152.707079678267,67.802045428349,-94.2571780060146,-134.787399202114,115.791047691962,41.8366380993845,-157.627685791347, , , , , , , , , , , , , , , , , , , , , , , , , , , , , , , , , , , , , , , , , , , , , , , , , , , , , , , , , , , , ,
