-31.9482906374218,-21.6159771171186,10.3323135203033,148.271939456273,298.731092446141,270.902585317493,172.058198021072,16.5692565466446,-83.2068352255267,26.78213387727,-21.1403020788625,-5.6418317984076,559,730,678,637,642,739,637,666,739,634,694,678,842,834,822,932,834,826,829,835,876,674,894,828,1035,1007,934,1049,951,932,929,999,1001,803,1034,1017,1314,1305,1301,1379,1249,1241,1212,1217,1452,1186,1546,1193,807,1132,1094,1039,1044,1141,1039,1068,1141,1036,1095,1094,
-31.9482906374218,-21.6159771171186,10.3323135203033,148.271939456273,298.731092446141,270.902585317493,172.058198021072,16.5692565466446,-83.2068352255267,26.78213387727,-21.1403020788625,-5.6418317984076,1339,1610,1573,1518,1522,1620,1518,1560,1620,1514,1574,1573,896,859,858,977,873,864,865,870,878,693,904,859,1049,1013,1024,1135,1043,1035,945,1021,1020,889,1046,1024,1384,1373,1373,1452,1339,1328,1329,1341,1453,1200,1568,1373,1648,2009,1972,1916,1921,2019,1916,1971,2019,1913,1974,1972,
-31.9482906374218,-21.6159771171186,10.3323135203033,148.271939456273,298.731092446141,270.902585317493,172.058198021072,16.5692565466446,-83.2068352255267,26.78213387727,-21.1403020788625,-5.6418317984076,2232,2496,2460,2404,2408,2506,2404,2458,2506,2400,2462,2460,967,925,889,999,901,893,896,906,957,741,966,905,1106,1067,1094,1217,1093,1082,1038,1043,1131,943,1096,1093,1418,1429,1443,1543,1445,1429,1425,1421,2207,1317,2431,1432,2589,2904,2867,2811,2816,2914,2811,2866,2914,2808,2869,2867,
-31.9482906374218,-21.6159771171186,10.3323135203033,148.271939456273,298.731092446141,270.902585317493,172.058198021072,16.5692565466446,-83.2068352255267,26.78213387727,-21.1403020788625,-5.6418317984076,3126,3391,3354,3298,3303,3400,3298,3352,3400,3295,3355,3354,1713,1688,1671,1684,1682,1706,1710,1701,1725,1714,1774,1680,1140,1140,1140,1284,1165,1153,1085,1093,1254,1096,1140,1140,2185,2197,2202,2036,2033,2121,2093,2042,2300,2253,2443,2199,3436,3798,3760,3705,3710,3807,3705,3759,3807,3702,3761,3760,
-31.9482906374218,-21.6159771171186,10.3323135203033,148.271939456273,298.731092446141,270.902585317493,172.058198021072,16.5692565466446,-83.2068352255267,26.78213387727,-21.1403020788625,-5.6418317984076,4017,4292,4253,4198,4204,4300,4198,4252,4300,4196,4254,4253,1738,1733,1730,1724,1736,1738,1739,1740,1741,1735,1787,1732,1183,1213,1175,1815,1817,1809,1156,1156,1304,1149,1208,1189,2249,2260,2267,2203,2206,2205,2206,2216,2340,2324,2451,2265,4370,4706,4666,4612,4618,4714,4612,4665,4714,4609,4667,4666,
-31.9482906374218,-21.6159771171186,10.3323135203033,148.271939456273,298.731092446141,270.902585317493,172.058198021072,16.5692565466446,-83.2068352255267,26.78213387727,-21.1403020788625,-5.6418317984076,4854,5198,5160,5104,5110,5206,5104,5158,5206,5102,5160,5160,1768,1787,1777,1751,1781,1773,1777,1813,1773,1781,1815,1800,1187,1881,1811,1901,1909,1912,1868,1877,1879,1186,1883,1886,2278,2305,2351,2294,2312,2304,2300,2296,3100,2878,3207,2318,5257,5611,5573,5517,5523,5619,5517,5572,5619,5514,5574,5573,
-31.9482906374218,-21.6159771171186,10.3323135203033,148.271939456273,298.731092446141,270.902585317493,172.058198021072,16.5692565466446,-83.2068352255267,26.78213387727,-21.1403020788625,-5.6418317984076,5784,6136,6098,6042,6048,6144,6042,6097,6144,6039,6100,6098,1815,2586,2590,2468,2600,2592,2596,2608,2622,2600,2698,2588,1911,1897,1829,1968,1959,1959,1898,1898,1899,1809,1922,1918,3006,3097,3101,3011,3015,3007,3011,2983,3191,2892,3285,3099,6230,6580,6543,6487,6492,6590,6487,6542,6590,6484,6545,6543,
-31.9482906374218,-21.6159771171186,10.3323135203033,140.206686397968,298.731092446141,270.902585317493,172.058198021072,16.5692565466446,-81.5396444600581,26.78213387727,-21.1403020788625,-5.6418317984076,6783,7129,7114,7036,7042,7139,7036,7090,7139,7034,7094,7114,2500,2628,2625,2519,2630,2632,2631,2632,2629,2630,2730,2626,1925,1970,1973,2035,2031,2030,1915,1920,2008,1898,1942,1971,3025,3165,3168,3099,3104,3104,3106,3112,3231,2931,3309,3167,7256,7598,7561,7506,7511,7608,7506,7559,7608,7503,7562,7561,
-31.9482906374218,-21.6159771171186,10.3323135203033,131.17414012969,298.731092446141,270.902585317493,172.058198021072,16.5692565466446,-75.2105595436319,26.78213387727,-21.1403020788625,-5.6418317984076,7778,8118,8080,8024,8030,8126,8024,8078,8126,8022,8081,8080,2534,2685,2689,2536,2667,2659,2663,2667,2723,2667,2765,2687,1986,2018,2018,2608,2711,2704,1962,1972,2069,1968,1975,2018,3081,3225,3233,3207,3206,3199,3195,3191,3990,3814,3975,3231,8221,8557,8518,8463,8469,8564,8463,8517,8564,8461,8520,8518,
-31.9482906374218,-21.6159771171186,10.3323135203033,120.81257030346,298.731092446141,270.902585317493,172.058198021072,16.5692565466446,-73.3394968357555,26.78213387727,-21.1403020788625,-5.6418317984076,8742,9213,9102,8973,8979,9028,8973,9101,9028,8970,9030,9102,2566,3497,3496,3490,3495,3583,3490,3490,3520,3495,3559,3496,2018,2058,2050,2694,2804,2807,2033,2033,2772,1996,2018,2059,3995,3991,3866,3905,3910,3998,3905,3910,4097,4049,4039,3932,9183, ,9459,9403,9409,9411,9403,9457,9411,9400,9460,9459,
-31.9482906374218,-21.6159771171186,10.3323135203033,113.178095465296,298.731092446141,270.902585317493,172.058198021072,16.5692565466446,-69.4511068587905,26.78213387727,-21.1403020788625,-5.6418317984076,9788, ,9998,9914,9984,9955,9914,9998,9955,9910,9981,9998,2631,3519,3517,3512,3523,3621,3525,3526,3529,3523,3575,3518,2066,2777,2712,2761,2854,2853,2703,2772,2792,2042,2159,2782,4051,4050,3928,3989,3995,4091,3999,4007,4137,4138,4203,4049, , , , , , , , , , , , ,
-31.9482906374218,-21.6159771171186,10.3323135203033,112.444646495507,298.731092446141,270.902585317493,172.058198021072,16.5692565466446,-67.1745422715056,26.78213387727,-21.1403020788625,-5.6418317984076, , , , , , , , , , , , ,3490,3579,3582,3557,3562,3650,3557,3562,3650,3562,3627,3581,2067,2794,2795,2828,2926,2925,2720,2793,2903,2705,2778,2813,4084,4103,4030,4101,4106,4193,4092,4083,4909,4725,4946,4122, , , , , , , , , , , , ,
-31.9482906374218,-21.6159771171186,10.3323135203033,106.929303486377,298.731092446141,270.902585317493,172.058198021072,16.5692565466446,-68.1307670743316,26.78213387727,-21.1403020788625,-5.6418317984076, , , , , , , , , , , , ,3528,4346,4382,4390,4396,4388,4390,4404,4431,4444,4462,4381,2675,2865,2868,3601,3606,3695,2810,2815,2963,2795,2794,2866,4926,4803,4861,4732,4811,4803,4805,4747,5001,4991,4998,4860, , , , , , , , , , , , ,
-31.9482906374218,-21.6159771171186,10.3323135203033,108.819548985567,298.731092446141,270.902585317493,172.058198021072,16.5692565466446,-66.9529139759071,26.78213387727,-21.1403020788625,-5.6418317984076, , , , , , , , , , , , ,3529,4365,4417,4419,4429,4429,4430,4432,4439,4471,4470,4419,2693,2914,2913,3687,3699,3797,2857,2868,3669,2862,2817,2914,4939,4888,4945,4898,4901,4901,4902,4912,5041,5087,5039,4944, , , , , , , , , , , , ,
-31.9482906374218,-21.6159771171186,10.3323135203033,110.947194182694,298.731092446141,270.902585317493,172.058198021072,16.5692565466446,-66.411468610288,26.78213387727,-21.1403020788625,-5.6418317984076, , , , , , , , , , , , ,3621,4423,4446,4457,4463,4455,4457,4463,4527,4511,4527,4443,2753,2976,2946,3757,3749,3844,2927,2926,3689,2885,2871,2960,4952,4932,4993,4994,5007,4999,4997,4993,5898,5594,5788,4990, , , , , , , , , , , , ,
-31.9482906374218,-21.6159771171186,10.3323135203033,110.287545877997,298.731092446141,270.902585317493,172.058198021072,16.5692565466446,-69.0612450604883,26.78213387727,-21.1403020788625,-5.6418317984076, , , , , , , , , , , , ,4410,5283,4481,5296,5302,5294,5296,5302,5325,5286,5337,4480,2779,3674,3603,3825,3821,3916,3597,3666,3797,3600,2913,3659,5784,5805,5810,5637,5717,5709,5711,5717,5899,5639,5832,5799, , , , , , , , , , , , ,
-31.9482906374218,-21.6159771171186,10.3323135203033,115.271649504165,298.731092446141,270.902585317493,172.058198021072,16.5692565466446,-69.7613234566654,26.78213387727,-21.1403020788625,-5.6418317984076, , , , , , , , , , , , ,4433,5327,5288,5321,5334,5335,5336,5337,5339,5330,5394,5288,2811,3686,3690,4508,4514,4505,3704,3688,3873,3654,3002,3692,5853,5858,5877,5807,5808,5807,5808,5814,5977,5705,5865,5861, , , , , , , , , , , , ,
-31.9482906374218,-21.6159771171186,10.3323135203033,120.508360829717,298.731092446141,270.902585317493,172.058198021072,16.5692565466446,-70.198226106054,26.78213387727,-21.1403020788625,-5.6418317984076, , , , , , , , , , , , ,4521,5355,5325,5363,5369,5361,5363,5369,5433,5385,5433,5327,2857,3758,3760,4596,4606,4608,3752,3709,4579,3756,3029,3759,5932,5937,5958,5903,5913,5905,5902,5898,6776,6554,7000,5951, , , , , , , , , , , , ,
-30.9573820747049,-21.6159771171186,9.34140495758629,122.05897716293,298.731092446141,270.902585317493,172.058198021072,16.5692565466446,-70.7951610808129,26.2866795959116,-20.1493935161456,-6.13728607976609, , , , , , , , , , , , ,5310,5393,5387,6266,6272,6264,6266,6269,6294,6257,6338,5387,3669,3806,3806,4664,4655,4655,3822,3760,4590,3790,3673,3806,6752,6871,6782,6607,6687,6679,6681,6687,6872,6626,7016,6769, , , , , , , , , , , , ,
-23.3454254916306,-12.7238544745406,10.62157101709,124.132001333525,300.970005508965,274.681848548967,172.058198021072,16.5692565466446,-73.360302754179,18.0346399830854,-16.9834982543603,-1.05114172872525, , , , , , , , , , , , ,5335,6372,6260,6292,6302,6304,6304,6304,6301,6301,6344,6258,3690,3905,3846,4731,4727,4726,4504,3823,4713,4553,3689,3856,6842,6942,6790,6775,6778,6778,6780,6787,6912,6676,7038,6846, , , , , , , , , , , , ,
-18.379712193688,-5.49089915246944,12.8888130412186,131.209091258584,305.894322315016,279.096661571756,172.058198021072,16.5692565466446,-74.6650512397476,11.9353056730786,-15.6342626174533,3.69895694437459, , , , , , , , , , , , ,5427,6395,6296,6333,6339,6331,6333,6339,6403,6356,6403,6297,3713,4522,4506,5413,5418,5410,4611,4573,4785,4618,3712,4590,6872,7016,6791,6867,6878,6875,6873,6868,7900,7917,7996,6930, , , , , , , , , , , , ,
-14.7600220962817,6.93898874196881,21.6990108382505,134.659773618218,311.213163899469,282.256552370046,172.058198021072,16.5692565466446,-75.164943157495,3.9105166771563,-18.2295164672661,14.3189997901097, , , , , , , , , , , , ,6280,6459,6327,7260,7266,7299,7292,7270,7314,7282,7349,6357,3774,4538,4524,5501,5511,5513,4658,4594,5484,4688,3763,4611,7765,7736,7753,7707,7713,7714,7707,7713,7901,8053,8005,7658, , , , , , , , , , , , ,
-9.24564642081207,10.4923765682763,19.7380229890883,136.497799792866,313.838559303302,283.093655910324,172.058198021072,16.5692565466446,-75.6002199786114,-0.623365073732256,-14.4918347049502,15.1151997786823, , , , , , , , , , , , ,6311,7288,7308,7309,7319,7330,7320,7321,7320,7318,7364,7290,3806,4608,4666,5570,5561,5561,4728,4617,5500,4725,3806,4665,7839,7858,7878,7802,7800,7810,7801,7805,8038,8589,8020,7858, , , , , , , , , , , , ,
-7.98470534415667,12.5883048399855,20.5730101841422,138.36587228832,314.762070598389,282.182419321076,172.058198021072,16.5692565466446,-75.9418142847548,-2.30179974791457,-14.2788577641494,16.5806575120639, , , , , , , , , , , , ,6397,7314,7332,7359,7365,7366,7359,7365,7326,7349,7430,7313,3853,4655,4712,5636,5632,5631,5409,4666,5610,5411,3863,4712,7884,7919,7949,7898,7907,7910,7895,7892,8770,8797,8917,7917, , , , , , , , , , , , ,
-7.35180993830265,15.4978105088855,22.8496204471882,143.364034304808,317.138715862125,282.400920720994,172.058198021072,16.5692565466446,-77.0238686005995,-4.07300028529158,-15.1007151927454,19.1737154780369, , , , , , , , , , , , ,7291,7356,7373,8248,8254,8254,8248,8248,8153,8238,8316,7373,4574,4755,4750,6383,6388,6380,5516,4726,5725,5502,3928,4756,8823,8689,8719,8759,8669,8669,8663,8637,8861,8881,8918,8616, , , , , , , , , , , , ,
-8.60055162185158,17.1300439442379,25.7305955660895,147.791272672746,315.275362402151,279.580281825321,172.058198021072,16.5692565466446,-78.5791607717031,-4.26474616119333,-17.1655735939705,21.4303197551638, , , , , , , , , , , , ,7325,8224,8240,8271,8281,8282,8282,8283,8289,8282,8332,8240,4591,5486,5407,6472,6480,6483,5564,5478,5754,5569,4605,5484,8885,8798,8798,8870,8756,8755,8756,8759,8901,9417,8956,8797, , , , , , , , , , , , ,
-10.1865591229716,13.2949622912283,23.4815214141998,148.271939456273,312.916605978822,275.912865294322,172.058198021072,16.5692565466446,-78.6070081315849,-1.55420158412852,-16.8340402685857,18.3882418527141, , , , , , , , , , , , ,7423,8280,8276,8315,8321,8321,8315,8321,9188,8337,8385,8279,4620,5503,5424,6539,6531,6530,5633,5500,6456,5594,4619,5519,9436,8850,8883,9612,8865,8856,8853,8845,9703,9608,9684,8922, , , , , , , , , , , , ,
-12.9737799167327,12.0333830369038,25.0071629536365,148.271939456273,309.282440726648,270.902585317493,172.058198021072,16.5692565466446,-78.5512704339694,0.470198439914274,-18.9904714351845,18.5202729952702, , , , , , , , , , , , ,8256,8313,8307,9165,9171,9188,9197,9316,9226,9046,9265,8307,4679,5571,5573,6606,6603,6602,6379,5522,6467,6380,4667,5572,9505, ,9741,9694,9521,9603,9612,9651,9794,9709,9688,9655, , , , , , , , , , , , ,
-17.8970248703798,5.89243244066753,23.7894573110473,148.271939456273,304.975412488041,270.902585317493,172.058198021072,16.5692565466446,-78.4177511218867,6.00229621485596,-20.8432410907135,14.8409448758574, , , , , , , , , , , , ,8286, ,9166,9210,9222,9223,9224,9347,9319,9051,9287,9189,4713,5618,5618,7401,7406,7409,6486,5573,6579,6417,4713,5618,9546, ,9997,9788,9695,9695,9697,9825,9834, ,9694,9757, , , , , , , , , , , , ,
-21.4792658017411,0.0705324417756081,21.5497982435166,148.271939456273,300.534463197052,270.902585317493,172.058198021072,16.5692565466446,-78.2164446053401,10.7043666799826,-21.5145320226288,10.8101653426462, , , , , , , , , , , , ,8379, ,9215,9232,9270,9255,9264,9392, ,9090,9321,9217,4779,5752,5654,7489,7499,7512,6534,5631,6650,6538,4782,5673, , , , ,9799,9794,9767,9893, , , ,9791, , , , , , , , , , , , ,
-27.0226042072033,-3.47964294256966,23.5429612646336,148.271939456273,298.731092446141,270.902585317493,172.058198021072,16.5692565466446,-79.5194825038504,15.2511235748863,-25.2827827359184,10.031659161032, , , , , , , , , , , , ,8978, ,9265, , , , , , ,9110, ,9265,5475,6548,6377,7557,7549,7559,6603,6448,7502,6554,4805,6460, , , , , , , , , , , , , , , , , , , , , , , , ,
-31.9482906374218,-7.21542286378147,24.7328677736404,148.271939456273,298.731092446141,270.902585317493,172.058198021072,16.5692565466446,-80.5143362623815,19.5818567506015,-28.3405792055311,8.75872245492947, , , , , , , , , , , , ,8997, , , , , , , , , , , ,5502,6565,6473,7626,7621,7630,7398,6469,7597,7397,5484,6489, , , , , , , , , , , , , , , , , , , , , , , , ,
-31.9482906374218,-12.9281295274382,19.0201611099836,148.271939456273,298.731092446141,270.902585317493,172.058198021072,16.5692565466446,-80.3611888884537,22.4382100824299,-25.4842258737027,3.04601579127276, , , , , , , , , , , , ,9097, , , , , , , , , , , ,5527,6638,6544,8359,8365,8359,7505,6491,7672,7489,5501,6542, , , , , , , , , , , , , , , , , , , , , , , , ,
-31.9482906374218,-17.3302289504959,14.6180616869259,148.271939456273,298.731092446141,270.902585317493,172.058198021072,16.5692565466446,-80.2045757863161,24.6392597939587,-23.2831761621738,-1.35608363178498, , , , , , , , , , , , , , , , , , , , , , , , ,5586,6686,6589,8433,8457,8460,7552,6544,7712,7556,5524,6589, , , , , , , , , , , , , , , , , , , , , , , , ,
-31.9482906374218,-19.9173747456848,12.030915891737,148.271939456273,298.731092446141,270.902585317493,172.058198021072,16.5692565466446,-80.0556682768435,25.9328326915532,-21.9896032645794,-3.9432294269739, , , , , , , , , , , , , , , , , , , , , , , , ,5618,6842,6621,8515,8507,8507,7622,6603,8430,7587,5576,6631, , , , , , , , , , , , , , , , , , , , , , , , ,
-31.9482906374218,-21.6159771171186,10.3323135203033,148.271939456273,295.214395348753,270.902585317493,172.058198021072,16.5692565466446,-81.3962415949277,26.78213387727,-21.1403020788625,-5.6418317984076, , , , , , , , , , , , , , , , , , , , , , , , ,5665,7470,7421,8584,8580,8579,8355,7467,8445,7814,5618,7479, , , , , , , , , , , , , , , , , , , , , , , , ,
-31.9482906374218,-21.6159771171186,10.3323135203033,147.374853337221,289.815510771801,270.902585317493,172.058198021072,16.5692565466446,-83.2068352255267,26.78213387727,-21.1403020788625,-5.6418317984076, , , , , , , , , , , , , , , , , , , , , , , , ,6449,7489,7508,9299,9304,9297,8462,7488,8556,7833,5666,7509, , , , , , , , , , , , , , , , , , , , , , , , ,
-31.9482906374218,-21.6159771171186,10.3323135203033,145.629463536207,284.747106744861,270.902585317493,172.058198021072,16.5692565466446,-83.2068352255267,26.78213387727,-21.1403020788625,-5.6418317984076, , , , , , , , , , , , , , , , , , , , , , , , ,6471,7558,7581,9387,9396,9399,8510,7510,8623,8356,6455,7560, , , , , , , , , , , , , , , , , , , , , , , , ,
-31.9482906374218,-21.6159771171186,10.3323135203033,143.165022203718,280.050557696518,270.902585317493,172.058198021072,16.5692565466446,-83.2068352255267,26.78213387727,-21.1403020788625,-5.6418317984076, , , , , , , , , , , , , , , , , , , , , , , , ,6496,7606,7627,9455,9447,9446,8580,7561,9366,8445,6471,7607, , , , , , , , , , , , , , , , , , , , , , , , ,
-31.9482906374218,-21.6159771171186,10.3323135203033,141.791326464887,275.754044090661,270.902585317493,172.058198021072,16.5692565466446,-83.2068352255267,26.78213387727,-21.1403020788625,-5.6418317984076, , , , , , , , , , , , , , , , , , , , , , , , ,6557,7691,7659,9523,9519,9518,9296,7620,9385,8491,6494,7654, , , , , , , , , , , , , , , , , , , , , , , , ,
-31.9482906374218,-21.6159771171186,10.3323135203033,140.821496205566,271.875502387591,270.902585317493,172.058198021072,16.5692565466446,-83.2068352255267,26.78213387727,-21.1403020788625,-5.6418317984076, , , , , , , , , , , , , , , , , , , , , , , , ,6589,8428,8360, , , ,9402,8424,9496,8542,6547,8435, , , , , , , , , , , , , , , , , , , , , , , , ,
-31.9482906374218,-21.6159771171186,10.3323135203033,140.000941776248,268.425664748274,270.902585317493,172.058198021072,16.5692565466446,-83.2068352255267,26.78213387727,-21.1403020788625,-5.6418317984076, , , , , , , , , , , , , , , , , , , , , , , , ,6635,8443,8449, , , ,9450,8446,9559,8587,6589,8467, , , , , , , , , , , , , , , , , , , , , , , , ,
-31.9482906374218,-21.6159771171186,10.3323135203033,139.702405534205,265.410836481274,270.902585317493,172.058198021072,16.5692565466446,-83.2068352255267,26.78213387727,-21.1403020788625,-5.6418317984076, , , , , , , , , , , , , , , , , , , , , , , , ,7459,8516,8519, , , ,9520,8468, ,9167,6649,8517, , , , , , , , , , , , , , , , , , , , , , , , ,
-31.9482906374218,-21.6159771171186,10.3323135203033,139.636159426843,262.83512850348,270.902585317493,172.058198021072,16.5692565466446,-83.2068352255267,26.78213387727,-21.1403020788625,-5.6418317984076, , , , , , , , , , , , , , , , , , , , , , , , ,7489,8563,8563, , , , ,8518, ,9206,6729,8563, , , , , , , , , , , , , , , , , , , , , , , , ,
-31.9482906374218,-21.6159771171186,10.3323135203033,140.348670928754,259.538548206648,268.164296138662,172.058198021072,16.5692565466446,-83.2068352255267,26.78213387727,-21.1403020788625,-5.6418317984076, , , , , , , , , , , , , , , , , , , , , , , , ,7549,8643,8604, , , , ,8581, ,9323,7473,8610, , , , , , , , , , , , , , , , , , , , , , , , ,
-31.9482906374218,-21.6159771171186,10.3323135203033,141.58254803923,257.822620117175,265.592862132086,172.058198021072,16.5692565466446,-83.2068352255267,26.78213387727,-21.1403020788625,-5.6418317984076, , , , , , , , , , , , , , , , , , , , , , , , ,7575, ,9297, , , , ,9487, ,9354,7487,9345, , , , , , , , , , , , , , , , , , , , , , , , ,
-31.9482906374218,-21.6159771171186,10.3323135203033,143.714875000491,256.367511889182,263.301978733683,172.058198021072,16.5692565466446,-83.2068352255267,26.78213387727,-21.1403020788625,-5.6418317984076, , , , , , , , , , , , , , , , , , , , , , , , ,7607, ,9388, , , , ,9508, ,9404,7513,9389, , , , , , , , , , , , , , , , , , , , , , , , ,
-31.9482906374218,-21.6159771171186,10.3323135203033,144.840569136755,255.536648795634,261.342745587054,172.058198021072,16.5692565466446,-83.2068352255267,26.78213387727,-21.1403020788625,-5.6418317984076, , , , , , , , , , , , , , , , , , , , , , , , ,7654, ,9459, , , , ,9530, , ,7565,9458, , , , , , , , , , , , , , , , , , , , , , , , ,
-31.9482906374218,-21.6159771171186,10.3323135203033,144.265451360347,255.11461548053,259.535604249892,172.058198021072,16.5692565466446,-83.2068352255267,26.78213387727,-21.1403020788625,-5.6418317984076, , , , , , , , , , , , , , , , , , , , , , , , ,8458, ,9504, , , , ,9582, , ,7607,9504, , , , , , , , , , , , , , , , , , , , , , , , ,
-31.9482906374218,-21.6159771171186,10.3323135203033,143.74939230494,254.895761904625,258.226657454086,172.058198021072,16.5692565466446,-83.2068352255267,26.78213387727,-21.1403020788625,-5.6418317984076, , , , , , , , , , , , , , , , , , , , , , , , ,8474, ,9538, , , , ,9641, , ,7671,9553, , , , , , , , , , , , , , , , , , , , , , , , ,
-31.9482906374218,-21.6159771171186,10.3323135203033,143.311500205331,255.423035856647,257.022673539509,172.058198021072,16.5692565466446,-83.2068352255267,26.78213387727,-21.1403020788625,-5.6418317984076, , , , , , , , , , , , , , , , , , , , , , , , ,8531, , , , , , , , , ,7724, , , , , , , , , , , , , , , , , , , , , , , , , ,
-31.9482906374218,-21.6159771171186,10.3323135203033,142.967127587049,256.23604053322,256.309790062622,172.058198021072,16.5692565466446,-83.2068352255267,26.78213387727,-21.1403020788625,-5.6418317984076, , , , , , , , , , , , , , , , , , , , , , , , ,8563, , , , , , , , , ,8429, , , , , , , , , , , , , , , , , , , , , , , , , ,
-31.9482906374218,-21.6159771171186,10.3323135203033,148.271939456273,257.405299920372,256.157928581305,172.058198021072,16.5692565466446,-83.2068352255267,26.78213387727,-21.1403020788625,-5.6418317984076, , , , , , , , , , , , , , , , , , , , , , , , ,8615, , , , , , , , , ,8446, , , , , , , , , , , , , , , , , , , , , , , , , ,
-31.9482906374218,-22.5775565367649,9.37073410065693,148.271939456273,259.255467687501,256.421537422201,172.058198021072,16.5692565466446,-83.2068352255267,27.2629235870932,-20.6595123690394,-6.60341121805395, , , , , , , , , , , , , , , , , , , , , , , , ,8616, , , , , , , , , ,8471, , , , , , , , , , , , , , , , , , , , , , , , , ,
-31.9482906374218,-27.5515545967894,4.39673604063239,148.271939456273,261.478107852522,257.024454979197,172.058198021072,16.5692565466446,-83.2068352255267,29.7499226171055,-18.1725133390271,-11.5774092780785, , , , , , , , , , , , , , , , , , , , , , , , ,9136, , , , , , , , , ,8521, , , , , , , , , , , , , , , , , , , , , , , , , ,
-31.9482906374218,-32.0690673609591,-0.120776723537231,148.271939456273,264.033907109622,258.196546694439,172.058198021072,16.5692565466446,-83.2068352255267,32.0086789991903,-15.9137569569423,-16.0949220422481, , , , , , , , , , , , , , , , , , , , , , , , ,9156, , , , , , , , , ,8563, , , , , , , , , , , , , , , , , , , , , , , , , ,
-31.9482906374218,-36.0040824732928,-4.05579183587099,148.271939456273,266.875133262626,259.569459719286,172.058198021072,16.5692565466446,-83.2068352255267,33.9761865553572,-13.9462494007754,-20.0299371545819, , , , , , , , , , , , , , , , , , , , , , , , ,9216, , , , , , , , , ,8631, , , , , , , , , , , , , , , , , , , , , , , , , ,
-31.9482906374218,-39.9689809212041,-8.0206902837823,148.271939456273,269.945922691295,261.589473933909,172.058198021072,16.5692565466446,-83.2068352255267,35.9586357793128,-11.9638001768197,-23.9948356024932, , , , , , , , , , , , , , , , , , , , , , , , ,9242, , , , , , , , , ,8689, , , , , , , , , , , , , , , , , , , , , , , , , ,
-36.4120751356076,-42.4779207653726,-6.06584562976502,148.271939456273,273.182953303854,263.906635963209,172.058198021072,16.5692565466446,-82.7635296227462,39.4449979504899,-15.1731147529213,-24.2718831975688, , , , , , , , , , , , , , , , , , , , , , , , ,9273, , , , , , , , , ,9368, , , , , , , , , , , , , , , , , , , , , , , , , ,
-40.5399531092778,-44.3189278110877,-3.77897470180983,148.271939456273,276.516550262037,266.444890893103,172.058198021072,16.5692565466446,-82.5112805937213,42.4294404601826,-18.380489203734,-24.0489512564487, , , , , , , , , , , , , , , , , , , , , , , , ,9320, , , , , , , , , ,9412, , , , , , , , , , , , , , , , , , , , , , , , , ,
-44.1591047488017,-45.2760752936045,-1.11697054480282,148.271939456273,279.872253669412,269.114775246328,172.058198021072,16.5692565466446,-82.7184500824033,44.7175900212029,-21.5210671019994,-23.1965229192036, , , , , , , , , , , , , , , , , , , , , , , , , , , , , , , , , , ,9433, , , , , , , , , , , , , , , , , , , , , , , , , ,
-47.3062977904248,-45.4924932814154,1.8138045090094,148.271939456273,283.172850825939,270.902585317493,172.058198021072,16.5692565466446,-83.2068352255267,46.39939553592,-24.5600511497171,-21.839344386203, , , , , , , , , , , , , , , , , , , , , , , , , , , , , , , , , , ,9464, , , , , , , , , , , , , , , , , , , , , , , , , ,
-50.0393481954399,-45.6619812886929,4.37736690674694,148.271939456273,286.340853287404,270.902585317493,172.058198021072,16.5692565466446,-83.2068352255267,47.8506647420663,-27.2083575510934,-20.642307190973, , , , , , , , , , , , , , , , , , , , , , , , , , , , , , , , , , ,9506, , , , , , , , , , , , , , , , , , , , , , , , , ,
-52.4297549461492,-44.6005142711031,7.8292406750461,148.271939456273,289.301382738625,270.902585317493,172.058198021072,16.5692565466446,-83.2068352255267,48.515134608626,-30.1294978105976,-18.3856367980285, , , , , , , , , , , , , , , , , , , , , , , , , , , , , , , , , , ,9558, , , , , , , , , , , , , , , , , , , , , , , , , ,
-54.7373478417453,-43.3345881562239,11.4027596855215,148.271939456273,291.985407788166,270.902585317493,172.058198021072,16.5692565466446,-83.2068352255267,49.0359679989845,-33.0700537636334,-15.9659142353512, , , , , , , , , , , , , , , , , , , , , , , , , , , , , , , , , , , , , , , , , , , , , , , , , , , , , , , , , , , , ,
-56.6730271605659,-41.373480514839,15.2995466457269,148.271939456273,294.333227157363,270.902585317493,172.058198021072,16.5692565466446,-83.2068352255267,49.0232538377023,-35.9862869031464,-13.036966934556, , , , , , , , , , , , , , , , , , , , , , , , , , , , , , , , , , , , , , , , , , , , , , , , , , , , , , , , , , , , ,
-58.4871518306241,-39.7202531097953,18.7668987208287,148.271939456273,296.298016377697,270.902585317493,172.456227567151,16.5692565466446,-83.2068352255267,49.1037024702096,-38.6270252757264,-10.4766771944833, , , , , , , , , , , , , , , , , , , , , , , , , , , , , , , , , , , , , , , , , , , , , , , , , , , , , , , , , , , , ,
-65.3780512998649,-37.2759013291282,28.1021499707367,148.271939456273,297.849164981122,272.752732013377,172.533616717329,16.5692565466446,-83.2068352255267,51.3269763144964,-46.7401006353008,-4.5868756791957, , , , , , , , , , , , , , , , , , , , , , , , , , , , , , , , , , , , , , , , , , , , , , , , , , , , , , , , , , , , ,
-67.0994706934929,-35.2013027897151,31.8981679037778,148.271939456273,298.731092446141,273.363711813572,172.058198021072,16.5692565466446,-83.2068352255267,51.1503867416039,-49.4988192986353,-1.65156744296864, , , , , , , , , , , , , , , , , , , , , , , , , , , , , , , , , , , , , , , , , , , , , , , , , , , , , , , , , , , , ,
-68.8181575891079,-32.6505780496737,36.1675795394342,148.271939456273,298.731092446141,273.812081808918,172.058198021072,16.5692565466446,-83.2068352255267,50.7343678193906,-52.492868564271,1.7585007448803, , , , , , , , , , , , , , , , , , , , , , , , , , , , , , , , , , , , , , , , , , , , , , , , , , , , , , , , , , , , ,
-75.2126287300435,-30.4348823723454,44.7777463576981,148.271939456273,298.731092446141,273.417287558424,172.058198021072,16.5692565466446,-83.2068352255267,52.8237555511943,-59.9951875438708,7.17143199267641, , , , , , , , , , , , , , , , , , , , , , , , , , , , , , , , , , , , , , , , , , , , , , , , , , , , , , , , , , , , ,
-77.5254935585676,-28.6601836776131,48.8653098809544,148.271939456273,298.731092446141,272.353962695168,172.058198021072,16.5692565466446,-83.2068352255267,53.0928386180902,-63.195401719761,10.1025631016707, , , , , , , , , , , , , , , , , , , , , , , , , , , , , , , , , , , , , , , , , , , , , , , , , , , , , , , , , , , , ,
-79.2414074268435,-26.4954311837276,52.7459762431159,148.271939456273,298.731092446141,270.902585317493,172.058198021072,16.5692565466446,-86.3479544272759,52.8684193052854,-65.9936918349797,13.1252725296942, , , , , , , , , , , , , , , , , , , , , , , , , , , , , , , , , , , , , , , , , , , , , , , , , , , , , , , , , , , , ,
-80.9294272881411,-24.9485912015093,55.9808360866317,148.271939456273,298.731092446141,270.902585317493,172.058198021072,16.5692565466446,-91.6635177012144,52.9390092448251,-68.4551316873864,15.5161224425612, , , , , , , , , , , , , , , , , , , , , , , , , , , , , , , , , , , , , , , , , , , , , , , , , , , , , , , , , , , , ,
-82.9014328011553,-23.3086985530292,59.592734248126,148.271939456273,298.731092446141,270.902585317493,172.058198021072,13.7655489083648,-96.3390072296096,53.1050656770921,-71.2470835246406,18.1420178475484, , , , , , , , , , , , , , , , , , , , , , , , , , , , , , , , , , , , , , , , , , , , , , , , , , , , , , , , , , , , ,
-84.4843421067083,-22.2319694812595,62.2523726254487,150.732514151058,298.19513279064,270.902585317493,168.718282520539,9.35385857282542,-102.317173155212,53.3581557939838,-73.3683573660785,20.0102015720946, , , , , , , , , , , , , , , , , , , , , , , , , , , , , , , , , , , , , , , , , , , , , , , , , , , , , , , , , , , , ,
-85.9999493446974,-21.6159771171186,64.3839722275789,153.305197473924,297.75535890707,270.902585317493,165.58141768989,5.2597360608918,-111.190186348543,53.8079632309078,-75.1919607861381,21.3839975552302, , , , , , , , , , , , , , , , , , , , , , , , , , , , , , , , , , , , , , , , , , , , , , , , , , , , , , , , , , , , ,
-89.8585358927273,-21.6159771171186,68.2425587756087,156.094315413782,297.49034962038,270.613236589643,162.780363355036,1.6189146595822,-118.870667015221,55.7372565049228,-79.050547334168,23.3132908292451, , , , , , , , , , , , , , , , , , , , , , , , , , , , , , , , , , , , , , , , , , , , , , , , , , , , , , , , , , , , ,
-91.2514389957767,-21.6159771171186,69.6354618786581,159.189459212375,297.461450839767,269.307699631832,160.42249224125,-1.45853436496871,-121.044485778524,56.4337080564475,-80.4434504372174,24.0097423807698, , , , , , , , , , , , , , , , , , , , , , , , , , , , , , , , , , , , , , , , , , , , , , , , , , , , , , , , , , , , ,
-96.1408535209822,-21.6159771171186,74.5248764038637,162.660069111069,297.708304046184,268.351252029061,158.582627671425,-3.894743404342,-127.412820383802,58.8784153190502,-85.3328649624229,26.4544496433726, , , , , , , , , , , , , , , , , , , , , , , , , , , , , , , , , , , , , , , , , , , , , , , , , , , , , , , , , , , , ,
-97.4871485536717,-21.9536658697671,75.5334826839046,166.552041114643,298.246233741074,267.77008610349,157.298749297009,-5.6482994272769,-132.742181463947,59.7204072117192,-86.5103156187881,26.7899084070688, , , , , , , , , , , , , , , , , , , , , , , , , , , , , , , , , , , , , , , , , , , , , , , , , , , , , , , , , , , , ,
-98.8558951927936,-23.1489367769086,75.706958415885,170.886577527802,298.731092446141,267.560340542018,156.570912821832,-6.71588604619971,-136.158943532813,61.002415984851,-87.2814268043393,26.2790108194882, , , , , , , , , , , , , , , , , , , , , , , , , , , , , , , , , , , , , , , , , , , , , , , , , , , , , , , , , , , , ,
-106.468337218097,-24.7821175076631,81.686219710434,175.661221400364,298.731092446141,267.690297273007,156.363374747417,-7.13122137235658,-136.151725854842,65.62522736288,-94.0772784642655,28.4520511013855, , , , , , , , , , , , , , , , , , , , , , , , , , , , , , , , , , , , , , , , , , , , , , , , , , , , , , , , , , , , ,
-107.981543465976,-27.2346989303199,80.7468445356565,180.852744944227,298.731092446141,268.104922743724,156.609594265871,-6.96140868137574,-138.986818943728,67.608121198148,-94.3641940008164,26.7560728026683, , , , , , , , , , , , , , , , , , , , , , , , , , , , , , , , , , , , , , , , , , , , , , , , , , , , , , , , , , , , ,
-109.608305809683,-29.8039035616894,79.8044022479932,185.000571059068,298.731092446141,268.732230123419,157.219529970269,-6.30100658669156,-140.98443953721,69.7061046856858,-94.7063540288378,25.0002493431519, , , , , , , , , , , , , , , , , , , , , , , , , , , , , , , , , , , , , , , , , , , , , , , , , , , , , , , , , , , , ,
-114.239885561345,-32.6772646667626,81.5626208945823,189.468516891837,298.731092446141,269.49076863321,158.088466148601,-5.26429345125101,-140.576866832683,73.4585751140536,-97.9012532279636,24.4426781139099, , , , , , , , , , , , , , , , , , , , , , , , , , , , , , , , , , , , , , , , , , , , , , , , , , , , , , , , , , , , ,
-118.383166508427,-35.788881172944,82.5942853354831,195.220211887243,300.0833356443,270.297452008137,159.1064986581,-3.97634544878824,-139.383999188642,77.0860238406854,-100.488725921955,23.4027020812695, , , , , , , , , , , , , , , , , , , , , , , , , , , , , , , , , , , , , , , , , , , , , , , , , , , , , , , , , , , , ,
-120.393112566714,-40.559658046443,79.8334545202705,201.166377141178,301.505598123892,270.902585317493,160.167787355762,-2.56365960485991,-138.33675352452,80.4763853065782,-100.113283543492,19.6368982369138, , , , , , , , , , , , , , , , , , , , , , , , , , , , , , , , , , , , , , , , , , , , , , , , , , , , , , , , , , , , ,
-123.667345344648,-45.6512224269575,78.0161229176908,207.25774546935,304.152611834123,270.902585317493,161.178734987752,-1.14511522199738,-137.964252095,84.6592838858028,-100.84173413117,16.1824502453667, , , , , , , , , , , , , , , , , , , , , , , , , , , , , , , , , , , , , , , , , , , , , , , , , , , , , , , , , , , , ,
-125.830182401065,-49.6888239715938,76.1413584294711,213.448643825385,306.554573201069,270.902585317493,162.064373987877,0.175943990142763,-137.804469589063,87.7595031863293,-100.985770415268,13.2262672289387, , , , , , , , , , , , , , , , , , , , , , , , , , , , , , , , , , , , , , , , , , , , , , , , , , , , , , , , , , , , ,
-127.999692114316,-54.1515813517531,73.8481107625628,219.697547269874,308.04394524994,271.1808431386,162.772429942132,1.31782742769186,-138.372660769676,91.0756367330343,-100.923901438439,9.84826470540488, , , , , , , , , , , , , , , , , , , , , , , , , , , , , , , , , , , , , , , , , , , , , , , , , , , , , , , , , , , , ,
-131.77640479027,-59.5507151332734,72.2256896569962,221.387333160064,309.187261131747,271.45292972778,163.274775301647,2.22432521387812,-139.130096059122,95.6635599617713,-102.001047223633,6.33748726186146, , , , , , , , , , , , , , , , , , , , , , , , , , , , , , , , , , , , , , , , , , , , , , , , , , , , , , , , , , , , ,
-133.781459178049,-64.0105074495957,69.7709517284535,227.03504378639,309.67880504699,271.546987799432,163.566269701687,2.8660068894803,-140.242912277391,98.8959833138223,-101.776205453251,2.88022213942891, , , , , , , , , , , , , , , , , , , , , , , , , , , , , , , , , , , , , , , , , , , , , , , , , , , , , , , , , , , , ,
-135.612477768488,-67.5587808877238,68.0536968807646,232.982544790854,309.874146302808,271.513092923568,163.661279677298,3.23903106727052,-141.777669092359,101.585629328106,-101.833087324626,0.247457996520457, , , , , , , , , , , , , , , , , , , , , , , , , , , , , , , , , , , , , , , , , , , , , , , , , , , , , , , , , , , , ,
-141.81994739107,-72.8269000446813,68.9930473463889,238.924429642806,310.189692293544,271.534745255644,163.588449164742,3.36178182977053,-144.144744407511,107.323423717876,-105.40649736873,-1.91692634914612, , , , , , , , , , , , , , , , , , , , , , , , , , , , , , , , , , , , , , , , , , , , , , , , , , , , , , , , , , , , ,
-143.143923485691,-75.883301914522,67.2606215711689,244.835606237019,310.172671911834,271.246760007864,163.384506884836,3.26988069651397,-145.67759518762,109.513612700106,-105.20227252843,-4.31134017167652, , , , , , , , , , , , , , , , , , , , , , , , , , , , , , , , , , , , , , , , , , , , , , , , , , , , , , , , , , , , ,
-144.155365862746,-79.7579036237044,64.3974622390413,247.037183453028,310.324950383756,270.902585317493,163.088001797037,3.01027255258568,-147.322732944461,111.956634743225,-104.276414050893,-7.68022069233153, , , , , , , , , , , , , , , , , , , , , , , , , , , , , , , , , , , , , , , , , , , , , , , , , , , , , , , , , , , , ,
-150.916403998249,-83.6864035166498,67.2300004815987,250.754492143001,310.330935498167,270.902585317493,162.733833489365,2.63513005051575,-149.123647336407,117.301403757449,-109.073202239924,-8.2282015175255, , , , , , , , , , , , , , , , , , , , , , , , , , , , , , , , , , , , , , , , , , , , , , , , , , , , , , , , , , , , ,
-151.251032346968,-85.8986417028525,65.3523906441154,256.481793513056,310.416469026982,270.902585317493,162.349299963961,2.19627046730786,-150.76457789144,118.57483702491,-108.301711495542,-10.2731255293685, , , , , , , , , , , , , , , , , , , , , , , , , , , , , , , , , , , , , , , , , , , , , , , , , , , , , , , , , , , , ,
-151.248990474699,-89.9302483871052,61.3187420875942,259.511853488686,310.4219744265,270.5250203237,161.952141939965,1.74064953115637,-151.343623159746,120.589619430902,-106.283866281147,-14.3057531497555, , , , , , , , , , , , , , , , , , , , , , , , , , , , , , , , , , , , , , , , , , , , , , , , , , , , , , , , , , , , ,
-156.692065812952,-91.4455403353502,65.2465254776014,262.283876130071,310.630537905717,270.172903767399,161.550743843943,1.30730094826608,-151.51353232686,124.068803074151,-110.969295645276,-13.0995074288744, , , , , , , , , , , , , , , , , , , , , , , , , , , , , , , , , , , , , , , , , , , , , , , , , , , , , , , , , , , , ,
-156.078771614947,-91.8502340888313,64.2285375261152,267.875213678935,310.926080896951,270.132349071208,162.801532526268,3.72955007557695,-150.998039201648,123.964502851889,-110.153654570531,-13.810848281358, , , , , , , , , , , , , , , , , , , , , , , , , , , , , , , , , , , , , , , , , , , , , , , , , , , , , , , , , , , , ,
-155.207017018867,-92.0855886936409,63.1214283252261,268.301616987293,311.201687715685,269.906195332158,163.3392397856,7.8318052909291,-149.954291663127,123.646302856254,-109.164222672047,-14.4820801842073, , , , , , , , , , , , , , , , , , , , , , , , , , , , , , , , , , , , , , , , , , , , , , , , , , , , , , , , , , , , ,
-154.114256483974,-92.1655233579077,61.9487331260661,268.879046418202,311.363977332466,269.829158843035,163.65920517258,11.7001699393309,-148.405350372819,123.139889920941,-108.03149480502,-15.1083951159207, , , , , , , , , , , , , , , , , , , , , , , , , , , , , , , , , , , , , , , , , , , , , , , , , , , , , , , , , , , , ,
-152.839202557027,-92.0952289528994,60.7439736041281,269.60775518273,311.85623754996,269.658328151367,163.947627193352,11.8806451205805,-146.404947756965,122.467215754963,-106.791588080578,-15.6756276743856, , , , , , , , , , , , , , , , , , , , , , , , , , , , , , , , , , , , , , , , , , , , , , , , , , , , , , , , , , , , ,
-151.419849852896,-91.8708296581104,59.5490201947854,270.478388308449,312.126046731893,269.479269973154,165.781257232768,11.907967139631,-144.033812145635,121.645339755503,-105.484435023841,-16.1609047316625, , , , , , , , , , , , , , , , , , , , , , , , , , , , , , , , , , , , , , , , , , , , , , , , , , , , , , , , , , , , ,
-149.892158075098,-91.480258453986,58.411899621112,271.473443057502,312.378267450325,269.469376447276,165.575915668946,11.9984285948858,-141.394660460412,120.686208264542,-104.152028848105,-16.534179416437, , , , , , , , , , , , , , , , , , , , , , , , , , , , , , , , , , , , , , , , , , , , , , , , , , , , , , , , , , , , ,
-148.289372028514,-90.9052964399766,57.3840755885373,272.568778481247,312.836278366308,269.610930494199,167.076794478778,12.392457133712,-138.606192164869,119.597334234245,-102.836723808526,-16.7606104257197, , , , , , , , , , , , , , , , , , , , , , , , , , , , , , , , , , , , , , , , , , , , , , , , , , , , , , , , , , , , ,
-146.641878882971,-90.1246111501596,56.5172677328111,273.735173534313,313.152499856473,269.586294338229,166.95016866604,12.598254520783,-135.796438969665,118.383245016565,-101.579573307891,-16.8036717086742, , , , , , , , , , , , , , , , , , , , , , , , , , , , , , , , , , , , , , , , , , , , , , , , , , , , , , , , , , , , ,
-144.977448631617,-89.1175117228552,55.8599369087622,274.940001527054,314.668899552598,269.867702020035,166.952397379955,13.2099454662311,-133.09585153969,117.047480177236,-100.41869277019,-16.6287874070465, , , , , , , , , , , , , , , , , , , , , , , , , , , , , , , , , , , , , , , , , , , , , , , , , , , , , , , , , , , , ,
-143.321655391767,-87.8680135717132,55.4536418200533,276.149073639347,315.832654547772,270.191462424312,167.106871747467,13.8685197783346,-130.630519550624,115.59483448174,-99.3876486059099,-16.2071858758299, , , , , , , , , , , , , , , , , , , , , , , , , , , , , , , , , , , , , , , , , , , , , , , , , , , , , , , , , , , , ,
-141.698250676019,-86.3687015496432,55.3295491263754,277.328623110434,317.630068451578,270.815058192006,167.674395503538,14.319705730027,-128.515909309256,114.033476112831,-98.513899901197,-15.5195762116339, , , , , , , , , , , , , , , , , , , , , , , , , , , , , , , , , , , , , , , , , , , , , , , , , , , , , , , , , , , , ,
-140.129281750228,-84.6238455541047,55.5054361961228,278.447304291541,318.813103912125,271.752642823569,168.411439563068,15.0758002122783,-126.851455600489,112.376563652166,-97.8173589731751,-14.5592046789909, , , , , , , , , , , , , , , , , , , , , , , , , , , , , , , , , , , , , , , , , , , , , , , , , , , , , , , , , , , , ,
-138.634829324355,-82.6512874096871,55.9835419146679,279.478018995857,320.725576487549,273.061877356922,169.481363424037,15.6066985338943,-125.716266781333,110.643058367021,-97.3091856195114,-13.3338727475096, , , , , , , , , , , , , , , , , , , , , , , , , , , , , , , , , , , , , , , , , , , , , , , , , , , , , , , , , , , , ,
-134.00105205566,-80.4827818337367,53.5182702219234,280.399382179218,322.54311659671,274.745337156179,171.027716579418,16.0946505203041,-125.166110782078,107.241916944698,-93.7596611387918,-13.4822558059066, , , , , , , , , , , , , , , , , , , , , , , , , , , , , , , , , , , , , , , , , , , , , , , , , , , , , , , , , , , , ,
-130.608070940731,-78.1627038108304,52.445367129901,281.196689358175,326.420883582994,276.919993727331,173.034168611621,16.5755820432253,-125.231761087737,104.385387375781,-91.5267190353162,-12.8586683404647, , , , , , , , , , , , , , , , , , , , , , , , , , , , , , , , , , , , , , , , , , , , , , , , , , , , , , , , , , , , ,
-129.427477967385,-75.7452763546658,53.6822016127187,281.862319514602,329.692169542384,279.427306943166,175.046958728471,17.2726272985256,-125.918706262701,102.586377161025,-91.5548397900516,-11.0315373709735, , , , , , , , , , , , , , , , , , , , , , , , , , , , , , , , , , , , , , , , , , , , , , , , , , , , , , , , , , , , ,
-128.367927004604,-73.2906769838521,55.0772500207521,282.39557957478,331.737865781391,282.067852129783,177.333073949063,17.85564179318,-127.20816780392,100.829301994228,-91.7225885126782,-9.10671348154998, , , , , , , , , , , , , , , , , , , , , , , , , , , , , , , , , , , , , , , , , , , , , , , , , , , , , , , , , , , , ,
-127.430286557161,-70.860516175688,56.5697703814733,282.802067637489,333.768074476355,284.827164933264,180.111858367697,18.3296347104743,-129.059324035573,99.1454013664245,-92.0000284693173,-7.14537289710732, , , , , , , , , , , , , , , , , , , , , , , , , , , , , , , , , , , , , , , , , , , , , , , , , , , , , , , , , , , , ,
-126.612149709317,-68.5132305917414,58.0989191175756,283.092698716321,337.382277061874,287.686375508587,182.808484690227,18.7211501478488,-131.412589657527,97.5626901505291,-92.3555344134463,-5.20715573708285, , , , , , , , , , , , , , , , , , , , , , , , , , , , , , , , , , , , , , , , , , , , , , , , , , , , , , , , , , , , ,
-125.909663834584,-66.299899642215,59.6097641923692,283.282581340463,339.956772492787,290.227457370235,185.082952014082,18.8761043458385,-134.193740276457,96.1047817383995,-92.7597140134767,-3.34506772492288, , , , , , , , , , , , , , , , , , , , , , , , , , , , , , , , , , , , , , , , , , , , , , , , , , , , , , , , , , , , ,
-125.319939706874,-64.260895767724,61.0590439391502,283.389934733518,342.071604488859,292.37182620527,187.121443000398,19.1275303947461,-137.31859886662,94.7904177372989,-93.1894918230122,-1.60092591428683, , , , , , , , , , , , , , , , , , , , , , , , , , , , , , , , , , , , , , , , , , , , , , , , , , , , , , , , , , , , ,
-124.8437085904,-62.423643751011,62.4200648393889,283.435189084236,345.293659277358,293.817174683011,188.908193920479,18.4462232411494,-140.697930439394,93.6336761707054,-93.6318867148944,-0.00178945581101697, , , , , , , , , , , , , , , , , , , , , , , , , , , , , , , , , , , , , , , , , , , , , , , , , , , , , , , , , , , , ,
-124.487799518014,-60.8016152991429,63.6861842188711,283.440332345484,345.867284515749,294.382178521452,189.646492411183,17.7143667928101,-144.242145804146,92.6447074085783,-94.0869918684425,1.4422844598641, , , , , , , , , , , , , , , , , , , , , , , , , , , , , , , , , , , , , , , , , , , , , , , , , , , , , , , , , , , , ,
-124.266975555635,-58.4744533158376,65.7925222397976,283.428480632104,347.934814858428,293.801372087815,189.497835668956,16.4572836503519,-147.865418659746,91.3707144357362,-95.0297488977163,3.65903446198003, , , , , , , , , , , , , , , , , , , , , , , , , , , , , , , , , , , , , , , , , , , , , , , , , , , , , , , , , , , , ,
-124.204702014238,-54.0497290658798,70.1549729483578,283.423570913633,348.088589004777,292.110514812978,187.919311904934,14.6987313490598,-151.488882246953,89.1272155400586,-97.1798374812977,8.05262194123903, , , , , , , , , , , , , , , , , , , , , , , , , , , , , , , , , , , , , , , , , , , , , , , , , , , , , , , , , , , , ,
-124.332507522412,-51.86786323959,72.4646442828224,283.450011221295,347.552284856849,288.611470667966,185.317935170839,12.3000736758198,-155.042681389589,88.100185381001,-98.3985759026174,10.2983905216162, , , , , , , , , , , , , , , , , , , , , , , , , , , , , , , , , , , , , , , , , , , , , , , , , , , , , , , , , , , , ,
-124.687720454958,-50.9905872517552,73.6971332032032,283.532084608679,346.137813353628,283.499115309089,180.815600303373,9.1704895176858,-158.466787133391,87.8391538533567,-99.1924268290808,11.353272975724, , , , , , , , , , , , , , , , , , , , , , , , , , , , , , , , , , , , , , , , , , , , , , , , , , , , , , , , , , , , ,
-125.309507679105,-50.2262380933221,75.0832695857825,283.69290309728,342.896773782333,277.648035187195,174.966643841661,5.58964014310268,-161.710606857146,87.7678728862132,-100.196388632444,12.4285157462303, , , , , , , , , , , , , , , , , , , , , , , , , , , , , , , , , , , , , , , , , , , , , , , , , , , , , , , , , , , , ,
-126.233309573027,-50.6935208777818,75.5397886952455,283.952757772474,338.275774318059,269.17185128945,167.404562941332,1.32891082082076,-164.731522491514,88.4634152254044,-100.886549134136,12.4231339087319, , , , , , , , , , , , , , , , , , , , , , , , , , , , , , , , , , , , , , , , , , , , , , , , , , , , , , , , , , , , ,
-127.483952911113,-50.0430252716642,77.440927639449,284.326807183635,335.863808468166,261.01623654594,158.50966755179,-3.59835965055974,-167.492552596757,88.7634890913886,-102.462440275281,13.6989511838924, , , , , , , , , , , , , , , , , , , , , , , , , , , , , , , , , , , , , , , , , , , , , , , , , , , , , , , , , , , , ,
-129.067922056184,-49.3958834603789,79.6720385958048,284.822166131027,329.99178175452,250.890302825983,148.645252890983,-9.26126377165631,-169.959361033005,89.2319027582811,-104.369980325994,15.138077567713, , , , , , , , , , , , , , , , , , , , , , , , , , , , , , , , , , , , , , , , , , , , , , , , , , , , , , , , , , , , ,
-130.965465122865,-51.9397776170054,79.0256875058597,285.434571447031,323.73159240008,239.550168469757,138.076007551733,-14.9448193422267,-172.096840997812,91.4526213699351,-104.995576314362,13.5429549444272, , , , , , , , , , , , , , , , , , , , , , , , , , , , , , , , , , , , , , , , , , , , , , , , , , , , , , , , , , , , ,
-133.123373559038,-51.2056290138144,81.917744545224,286.144886240158,316.756682085885,230.542269741195,127.431539079716,-20.8989934509718,-173.865512416022,92.1645012864262,-107.520559052131,15.3560577657048, , , , , , , , , , , , , , , , , , , , , , , , , , , , , , , , , , , , , , , , , , , , , , , , , , , , , , , , , , , , ,
-135.449330424001,-50.3862480446728,85.063082379328,286.915741549369,311.865045712421,220.386366768231,117.63671481683,-26.5269179228244,-175.217997570267,92.9177892343367,-110.256206401664,17.3384171673276, , , , , , , , , , , , , , , , , , , , , , , , , , , , , , , , , , , , , , , , , , , , , , , , , , , , , , , , , , , , ,
-137.808603122965,-50.37608528481,87.4325178381552,287.688594390459,306.599418307816,213.808989729322,109.006929381707,-31.0476615353509,-176.095875928697,94.0923442038874,-112.62056048056,18.5282162766726, , , , , , , , , , , , , , , , , , , , , , , , , , , , , , , , , , , , , , , , , , , , , , , , , , , , , , , , , , , , ,
-140.023577103322,-49.3099446549573,90.7136324483645,288.381411149711,302.14655568604,208.371004084724,102.97214219918,-34.5595891790203,-176.427239672235,94.6667608791394,-115.368604775843,20.7018438967036, , , , , , , , , , , , , , , , , , , , , , , , , , , , , , , , , , , , , , , , , , , , , , , , , , , , , , , , , , , , ,
-141.87630739593,-48.0829455579874,93.7933618379424,288.887094614756,299.064541314764,206.351824705838,100.378807109082,-36.011973815436,-176.125255455133,94.9796264769585,-117.834834616936,22.8552081399775, , , , , , , , , , , , , , , , , , , , , , , , , , , , , , , , , , , , , , , , , , , , , , , , , , , , , , , , , , , , ,
-143.114021370787,-46.669968007132,96.4440533636551,289.072699178634,297.359178778473,207.371380793119,102.281229338445,-35.0393876231118,-175.087983393938,94.8919946889594,-119.779037367221,24.8870426782616, , , , , , , , , , , , , , , , , , , , , , , , , , , , , , , , , , , , , , , , , , , , , , , , , , , , , , , , , , , , ,
-143.457361709683,-45.0458344987847,98.411527210898,288.77944749673,297.832029407811,215.634670931677,109.881762775485,-31.227204406009,-173.199627378918,94.2515981042336,-120.93444446029,26.6828463560567, , , , , , , , , , , , , , , , , , , , , , , , , , , , , , , , , , , , , , , , , , , , , , , , , , , , , , , , , , , , ,
-142.611070434783,-43.1855719248877,99.4254985098954,287.823581085317,300.646581876974,227.918805090168,123.621707722221,-25.0990253921457,-170.333309741369,92.8983211798353,-121.018284472339,28.1199632925039, , , , , , , , , , , , , , , , , , , , , , , , , , , , , , , , , , , , , , , , , , , , , , , , , , , , , , , , , , , , ,
-140.27674410526,-41.0646881156142,99.2120559896457,285.998143615823,305.170028291098,248.826314702731,144.767277108821,-12.9586689833049,-166.355381908719,90.670716110437,-119.744400047453,29.0736839370158, , , , , , , , , , , , , , , , , , , , , , , , , , , , , , , , , , , , , , , , , , , , , , , , , , , , , , , , , , , , ,
-138.080543842753,-38.6593857823246,99.4211580604286,283.075892923785,314.17214615753,275.447309551441,173.583034004474,3.99660683244715,-161.131192739949,88.3699648125387,-118.750850951591,30.3808861390521, , , , , , , , , , , , , , , , , , , , , , , , , , , , , , , , , , , , , , , , , , , , , , , , , , , , , , , , , , , , ,
-131.935431227075,-35.9467486532911,95.9886825737835,278.813628384835,324.864371208144,307.092075304825,210.147795709941,26.1669495216913,-154.532133252588,83.9410899401827,-113.962056900429,30.0209669602463, , , , , , , , , , , , , , , , , , , , , , , , , , , , , , , , , , , , , , , , , , , , , , , , , , , , , , , , , , , , ,
-123.537143386937,-32.9050119381866,90.6321314487504,272.958248749353,337.234172754227,345.48855492985,254.353364440614,53.7997326434686,-146.443664383422,78.2210776625617,-107.084637417844,28.8635597552819, , , , , , , , , , , , , , , , , , , , , , , , , , , , , , , , , , , , , , , , , , , , , , , , , , , , , , , , , , , , ,
-112.909991483836,-29.5140255758404,83.3959659079953,265.25476745584,347.496411610617,386.469450143204,305.392045941762,86.9539887960739,-136.773916427794,71.2120085298379,-98.1529786959155,26.9409701660775, , , , , , , , , , , , , , , , , , , , , , , , , , , , , , , , , , , , , , , , , , , , , , , , , , , , , , , , , , , , ,
-99.60196638866,-25.7559349588851,73.8460314297749,255.456277937045,360.229680927586,430.04504735918,361.814886950496,125.470200964519,-125.905631024721,62.6789506737724,-86.7239989092175,24.045048235445, , , , , , , , , , , , , , , , , , , , , , , , , , , , , , , , , , , , , , , , , , , , , , , , , , , , , , , , , , , , ,
-83.7965319500587,-21.6159771171186,62.1805548329402,243.335501211066,370.398069193646,472.850085916572,422.300570083115,168.948019019491,-112.976037409037,52.7062545335885,-72.9885433914994,20.2822888579108, , , , , , , , , , , , , , , , , , , , , , , , , , , , , , , , , , , , , , , , , , , , , , , , , , , , , , , , , , , , ,
-66.0679612426951,-17.0831630260434,48.9847982166517,228.697146515083,375.796255990349,511.660151632797,484.022900224833,216.734281307156,-98.5701932362261,41.5755621343691,-57.5263797296734,15.9508175953042, , , , , , , , , , , , , , , , , , , , , , , , , , , , , , , , , , , , , , , , , , , , , , , , , , , , , , , , , , , , ,
-48.2464024081808,-12.1505135555811,36.0958888525997,211.389986794954,375.368603008895,543.714450809801,545.069471959682,267.923324897735,-83.2068352255267,30.1984579818808,-42.1711456303902,11.9726876485094, , , , , , , , , , , , , , , , , , , , , , , , , , , , , , , , , , , , , , , , , , , , , , , , , , , , , , , , , , , , ,
-26.0683164761091,-6.81444966489747,19.2538668112117,191.317372950325,367.13847405845,565.227750231788,601.818251627343,321.370950518565,-83.2068352255267,16.4413830705032,-22.6610916436604,6.21970857315713, , , , , , , , , , , , , , , , , , , , , , , , , , , , , , , , , , , , , , , , , , , , , , , , , , , , , , , , , , , , ,
-2.19681628986045,-1.07292435127059,1.12389193858985,168.44489885936,347.654383272458,572.587124494442,651.292275064901,375.722580277088,-83.2068352255267,1.63487032056537,-1.66035411422513,0.0254837936596646, , , , , , , , , , , , , , , , , , , , , , , , , , , , , , , , , , , , , , , , , , , , , , , , , , , , , , , , , , , , ,
22.7535696360238,5.07804852985052,-17.6755211061733,148.271939456273,318.137259461234,562.142406586668,689.645460903832,429.455139985789,-78.7293851361159,-13.9158090829373,20.2145453710986,-6.29873628816135, , , , , , , , , , , , , , , , , , , , , , , , , , , , , , , , , , , , , , , , , , , , , , , , , , , , , , , , , , , , ,
48.2665097110553,11.6496420723008,-36.6168676387546,131.865177380533,272.402670423439,530.591094718665,713.979165239842,480.931074120684,-58.0455714208493,-29.9580758916782,42.441688674905,-12.4836127832269, , , , , , , , , , , , , , , , , , , , , , , , , , , , , , , , , , , , , , , , , , , , , , , , , , , , , , , , , , , , ,
73.7898839703728,18.667132864346,-55.1227511060268,101.034300252044,212.404451354064,474.806122157026,720.762581478248,528.461760617585,-36.0098970442022,-46.2285084173596,64.4563175381998,-18.2278091208403, , , , , , , , , , , , , , , , , , , , , , , , , , , , , , , , , , , , , , , , , , , , , , , , , , , , , , , , , , , , ,
98.7612039092833,26.1780055114218,-72.5831983978616,67.5856092328441,135.095140570381,392.552744361189,706.567758050578,570.376570383117,-12.5595801386699,-62.4696047103527,85.6722011535725,-23.2025964432199, , , , , , , , , , , , , , , , , , , , , , , , , , , , , , , , , , , , , , , , , , , , , , , , , , , , , , , , , , , , ,
122.634051161387,34.2603527098888,-88.3736984514982,32.3502167894787,38.7961310296997,281.874355791806,668.940703235575,605.093058518552,9.01844273440477,-78.447201935638,105.503874806443,-27.0566728708047, , , , , , , , , , , , , , , , , , , , , , , , , , , , , , , , , , , , , , , , , , , , , , , , , , , , , , , , , , , , ,
144.903565812564,43.0303180594367,-101.873247753127,-4.88513302082706,-74.5485293583817,141.57377384475,606.230921847891,631.183412392971,32.3897165524861,-93.9669419360004,123.388406782846,-29.4214648468452, , , , , , , , , , , , , , , , , , , , , , , , , , , , , , , , , , , , , , , , , , , , , , , , , , , , , , , , , , , , ,
165.129029582905,52.6471262202687,-112.481903362637,-43.9296263429293,-206.787576430694,-28.554404090088,516.653511172605,647.432424012073,55.3316885650159,-108.888077901587,138.805466472771,-29.9173885711838, , , , , , , , , , , , , , , , , , , , , , , , , , , , , , , , , , , , , , , , , , , , , , , , , , , , , , , , , , , , ,
182.95187688136,63.3142795754752,-119.637597305885,-84.0539156777038,-358.963175454679,-227.952206080244,399.091479224569,652.88296661016,77.7294411796325,-123.133078228418,151.294737093622,-28.1616588652048, , , , , , , , , , , , , , , , , , , , , , , , , , , , , , , , , , , , , , , , , , , , , , , , , , , , , , , , , , , , ,
198.107997085625,72.404498246972,-125.703498838653,-125.695948226963,-529.906096792358,-455.578973739314,253.882115607072,646.86620295099,97.9687451035312,-135.256247666298,161.905747962139,-26.6495002958403, , , , , , , , , , , , , , , , , , , , , , , , , , , , , , , , , , , , , , , , , , , , , , , , , , , , , , , , , , , , ,
210.43385336244,84.3085349002435,-126.125318462196,-168.298725085124,-716.069341182399,-709.570157418941,81.639865310846,629.015337611317,116.327161688482,-147.371194131342,168.279585912318,-20.9083917809764, , , , , , , , , , , , , , , , , , , , , , , , , , , , , , , , , , , , , , , , , , , , , , , , , , , , , , , , , , , , ,
219.866596012235,99.665705601798,-120.200890410437,-212.59388241355,-918.460521167887,-987.653789698841,-116.517993112847,599.2633118931,135.561029559565,-159.766150807017,170.033743211336,-10.2675924043194, , , , , , , , , , , , , , , , , , , , , , , , , , , , , , , , , , , , , , , , , , , , , , , , , , , , , , , , , , , , ,
226.438869515114,115.723093574504,-110.71577594061,-257.66650576491,-1134.90773685891,-1286.98000913925,-338.909847572107,557.826097276275,154.920080211849,-171.080981544809,168.577322727862,2.50365881694718, , , , , , , , , , , , , , , , , , , , , , , , , , , , , , , , , , , , , , , , , , , , , , , , , , , , , , , , , , , , ,
230.269329357689,133.190915361922,-97.078413995767,-304.430428214541,-1365.27288536487,-1604.55191065372,-582.961028302887,505.174012544542,172.287236449729,-181.730122359806,163.673871676728,18.0562506830776, , , , , , , , , , , , , , , , , , , , , , , , , , , , , , , , , , , , , , , , , , , , , , , , , , , , , , , , , , , , ,
229.106626669526,154.779128891106,-74.3274977784207,-352.579340522249,-1606.75073500252,-1937.05656744838,-846.224987618919,441.993834214396,191.914715497912,-191.942877780316,151.717062223974,40.2258155563426, , , , , , , , , , , , , , , , , , , , , , , , , , , , , , , , , , , , , , , , , , , , , , , , , , , , , , , , , , , , ,
225.495012053752,179.199313161399,-46.2956988923528,-402.996504170106,-1857.58102763091,-2281.25224666801,-1125.7564607001,369.144574897571,211.820871653714,-202.347162607576,135.895355473052,66.4518071345232, , , , , , , , , , , , , , , , , , , , , , , , , , , , , , , , , , , , , , , , , , , , , , , , , , , , , , , , , , , , ,
221.627354724186,205.953787069964,-15.6735676542222,-455.333179424759,-2116.93758839656,-2633.92253708402,-1420.19525676828,287.609828214869,230.791777677787,-213.790570897075,118.650461189204,95.140109707871, , , , , , , , , , , , , , , , , , , , , , , , , , , , , , , , , , , , , , , , , , , , , , , , , , , , , , , , , , , , ,
209.124504732795,235.903712785872,26.7792080530763,-510.334688842095,-2383.30479616105,-2991.95897251228,-1723.04940926712,196.067267733941,248.629288536802,-222.514108759334,91.1726483398596,131.341460419474, , , , , , , , , , , , , , , , , , , , , , , , , , , , , , , , , , , , , , , , , , , , , , , , , , , , , , , , , , , , ,
199.869029824612,268.874256872573,69.0052270479607,-568.239227534118,-2655.21204192515,-3352.66237726846,-2034.95842172978,95.9601222775659,268.866523198604,-234.371643348593,65.4319013883259,168.939741960267, , , , , , , , , , , , , , , , , , , , , , , , , , , , , , , , , , , , , , , , , , , , , , , , , , , , , , , , , , , , ,
179.895521585033,303.355618807883,123.460097222849,-631.14047144894,-2931.23618209493,-3713.0115890503,-2349.3638259142,-7.99500963648737,292.161709385072,-241.625570196458,28.2177121810921,213.407858015366, , , , , , , , , , , , , , , , , , , , , , , , , , , , , , , , , , , , , , , , , , , , , , , , , , , , , , , , , , , , ,
170.768223034523,339.361502973184,168.593279938661,-699.966590898848,-3209.9964229004,-4070.8295031708,-2665.06110636854,-113.569528196738,316.837338884149,-255.064863003853,1.08747154793082,253.977391455923, , , , , , , , , , , , , , , , , , , , , , , , , , , , , , , , , , , , , , , , , , , , , , , , , , , , , , , , , , , , ,
154.339165221133,376.012667628975,221.673502407842,-772.666620138488,-3490.14429028616,-4423.90347183899,-2979.69244920185,-222.608737355248,340.65861466222,-265.175916425054,-33.6671685933545,298.843085018408, , , , , , , , , , , , , , , , , , , , , , , , , , , , , , , , , , , , , , , , , , , , , , , , , , , , , , , , , , , , ,
136.620918906291,413.050321822305,276.429402916014,-845.904819001385,-3770.35155087679,-4770.70204423224,-3291.47451814052,-334.249591363463,365.699164933935,-274.835620364298,-69.9042420048611,344.739862369159, , , , , , , , , , , , , , , , , , , , , , , , , , , , , , , , , , , , , , , , , , , , , , , , , , , , , , , , , , , , ,
122.282993905038,448.935584000241,326.652590095203,-927.730848030865,-4049.29877916116,-5108.95034664171,-3596.04285922848,-447.738493034267,392.833959427414,-285.60928895264,-102.184798095082,387.794087047722, , , , , , , , , , , , , , , , , , , , , , , , , , , , , , , , , , , , , , , , , , , , , , , , , , , , , , , , , , , , ,
105.054107255993,482.182633152806,377.128525896813,-1008.71233091885,-4326.83023408901,-5437.76550565694,-3893.33721261219,-562.439395037733,423.385384868099,-293.618370204399,-136.03720932041,429.655579524809, , , , , , , , , , , , , , , , , , , , , , , , , , , , , , , , , , , , , , , , , , , , , , , , , , , , , , , , , , , , ,
97.4819470459407,512.126301265672,414.644354219731,-1093.66981005714,-4599.29610365833,-5755.45415998187,-4181.92662073957,-677.836898334108,455.183773844056,-304.804124155806,-158.581203586895,463.385327742701, , , , , , , , , , , , , , , , , , , , , , , , , , , , , , , , , , , , , , , , , , , , , , , , , , , , , , , , , , , , ,
90.4854328210929,540.269382854565,449.783950033472,-1182.3342441039,-4866.56368800717,-6061.29290406046,-4460.65635454021,-793.535350602015,488.01611752462,-315.377407837829,-179.64925860619,495.026666444019, , , , , , , , , , , , , , , , , , , , , , , , , , , , , , , , , , , , , , , , , , , , , , , , , , , , , , , , , , , , ,
84.1731055648591,564.449615273771,480.276509708912,-1274.30574634145,-5127.25612164481,-6354.19247094341,-4728.63470381227,-909.254812985536,521.63096627967,-324.311360419315,-198.051702072026,522.363062491341, , , , , , , , , , , , , , , , , , , , , , , , , , , , , , , , , , , , , , , , , , , , , , , , , , , , , , , , , , , , ,
78.6300035031294,584.686994345274,506.056990842145,-1369.0596428412,-5380.32171804244,-6633.63390925304,-4985.21629739625,-1024.82450456832,555.749403992606,-331.658498924202,-213.713493669508,545.37199259371, , , , , , , , , , , , , , , , , , , , , , , , , , , , , , , , , , , , , , , , , , , , , , , , , , , , , , , , , , , , ,
73.9204105667113,598.087709927806,524.167299361094,-1465.96094477966,-5624.06705075252,-6898.76646189921,-5229.9828177452,-1140.17401317571,588.568291788873,-336.004060247259,-225.123444397191,561.12750464445, , , , , , , , , , , , , , , , , , , , , , , , , , , , , , , , , , , , , , , , , , , , , , , , , , , , , , , , , , , , ,
70.08970713681,606.952338472069,536.862631335259,-1564.28706827043,-5857.56567614168,-7149.47540606453,-5462.7214035275,-1255.32226536857,621.705941487446,-338.52102280444,-233.386462099225,571.907484903664, , , , , , , , , , , , , , , , , , , , , , , , , , , , , , , , , , , , , , , , , , , , , , , , , , , , , , , , , , , , ,
67.1651031819578,611.18411301845,544.019009836493,-1663.25772554344,-6079.62557011649,-7384.96900648729,-5683.40060950367,-1370.36405566086,654.26661631312,-339.174608100204,-238.426953327267,577.601561427471, , , , , , , , , , , , , , , , , , , , , , , , , , , , , , , , , , , , , , , , , , , , , , , , , , , , , , , , , , , , ,
65.1552853166738,609.697775674318,544.542490357645,-1762.07004007874,-6289.41053259786,-7605.35154149601,-5892.14360810475,-1485.45387956845,686.439297356533,-337.426530495496,-239.693602520485,577.120133015982, , , , , , , , , , , , , , , , , , , , , , , , , , , , , , , , , , , , , , , , , , , , , , , , , , , , , , , , , , , , ,
64.0492723973849,603.611505532167,539.562233134782,-1859.9362358402,-6485.9012038896,-7810.35271161022,-6089.19835460464,-1600.78687487659,718.543276435302,-333.830388964776,-237.756480368699,571.586869333475, , , , , , , , , , , , , , , , , , , , , , , , , , , , , , , , , , , , , , , , , , , , , , , , , , , , , , , , , , , , ,
63.8149758969893,590.591024398216,526.776048501227,-1956.12078987086,-6668.8700684194,-8000.3627276884,-6274.9046161769,-1716.57681062679,749.516942867111,-327.203000147603,-231.480536302119,558.683536449721, , , , , , , , , , , , , , , , , , , , , , , , , , , , , , , , , , , , , , , , , , , , , , , , , , , , , , , , , , , , ,
64.3980177109699,575.714678122726,511.316660411756,-2049.97372868586,-6837.13421083391,-8174.906425488,-6449.65803670708,-1833.03127417644,779.610776432587,-320.056347916848,-223.459321350393,543.515669267241, , , , , , , , , , , , , , , , , , , , , , , , , , , , , , , , , , , , , , , , , , , , , , , , , , , , , , , , , , , , ,
65.7212329107485,557.404570939772,491.683338029023,-2140.95682539053,-6990.77930846788,-8334.44729677004,-6613.8717920313,-1950.32452568209,808.664064368789,-311.56290192526,-212.981052559137,524.543954484398, , , , , , , , , , , , , , , , , , , , , , , , , , , , , , , , , , , , , , , , , , , , , , , , , , , , , , , , , , , , ,
67.6850394456337,535.725893199779,468.040853754145,-2228.65990890559,-7129.56571591916,-8479.20580551969,-6767.93691205013,-2068.56891891729,836.551320466889,-301.705466322706,-200.177907154255,501.883373476962, , , , , , , , , , , , , , , , , , , , , , , , , , , , , , , , , , , , , , , , , , , , , , , , , , , , , , , , , , , , ,
70.1686228126437,515.735968355919,445.567345543275,-2312.80539288196,-7253.77461428911,-8609.42194181617,-6912.1829864363,-2187.78627581019,863.183411562231,-292.952295584281,-187.699361365316,480.651656949597, , , , , , , , , , , , , , , , , , , , , , , , , , , , , , , , , , , , , , , , , , , , , , , , , , , , , , , , , , , , ,
73.0317656708154,494.395580495486,421.363814824671,-2393.24040348918,-7363.15400800661,-8725.32822610773,-7046.84164317402,-2307.88106855454,888.506579373631,-283.713673083151,-174.166024576928,457.879697660078, , , , , , , , , , , , , , , , , , , , , , , , , , , , , , , , , , , , , , , , , , , , , , , , , , , , , , , , , , , , ,
76.1171642316409,475.089572427589,398.972408195948,-2469.91733908372,-7458.19019490094,-8827.12536253671,-7172.01574206603,-2428.61761641225,912.499414339996,-275.603368329615,-161.427621982154,437.030990311769, , , , , , , , , , , , , , , , , , , , , , , , , , , , , , , , , , , , , , , , , , , , , , , , , , , , , , , , , , , , ,
79.2531642426618,458.551764067938,379.298599825276,-2542.86509305929,-7539.53102298427,-8914.96351571891,-7287.6574712491,-2549.60365464048,935.168024416256,-268.9024641553,-150.022717791307,418.925181946607, , , , , , , , , , , , , , , , , , , , , , , , , , , , , , , , , , , , , , , , , , , , , , , , , , , , , , , , , , , , ,
82.2569457968827,445.30464774225,363.047701945367,-2612.1542966974,-7607.06028328785,-8988.93182816152,-7393.55832338114,-2670.28251791123,956.539793708243,-263.780796769566,-140.395378074242,404.176174843808, , , , , , , , , , , , , , , , , , , , , , , , , , , , , , , , , , , , , , , , , , , , , , , , , , , , , , , , , , , , ,
84.9382120312099,430.69359265378,345.75538062257,-2677.86061142202,-7661.54335265313,-9049.0580082086,-7489.35319953293,-2789.93577495306,976.656208900495,-257.815902342495,-130.40858429568,388.224486638175, , , , , , , , , , , , , , , , , , , , , , , , , , , , , , , , , , , , , , , , , , , , , , , , , , , , , , , , , , , , ,
87.1033624900293,424.06099359059,336.957631100561,-2740.03020392339,-7703.50287959161,-9095.3187109921,-7574.53967805979,-2907.69744980819,995.565244082889,-255.58217804031,-124.927134305266,380.509312345575, , , , , , , , , , , , , , , , , , , , , , , , , , , , , , , , , , , , , , , , , , , , , , , , , , , , , , , , , , , , ,
88.5600202440302,423.407088630801,334.847068386771,-2798.6510838028,-7733.4870861064,-9127.66015233094,-7648.51193471681,-3022.57999506272,1013.31377136323,-255.983554437416,-123.14352407137,379.127078508786, , , , , , , , , , , , , , , , , , , , , , , , , , , , , , , , , , , , , , , , , , , , , , , , , , , , , , , , , , , , ,
89.1217366707236,427.080703263784,337.95896659306,-2853.63311701468,-7752.06513125188,-9146.0271247096,-7710.60716098679,-3135.28351867786,1029.94044567995,-258.101219967254,-124.418614961168,382.519834928422, , , , , , , , , , , , , , , , , , , , , , , , , , , , , , , , , , , , , , , , , , , , , , , , , , , , , , , , , , , , ,
88.6127572889821,434.621346781821,346.008589492839,-2904.79844004328,-7759.82568272606,-9150.39750459123,-7760.16087887607,-3245.73101449795,1045.469509613,-261.617052035402,-128.697916101929,390.31496813733, , , , , , , , , , , , , , , , , , , , , , , , , , , , , , , , , , , , , , , , , , , , , , , , , , , , , , , , , , , , ,
86.8728370218101,442.222429830631,355.349592808821,-2951.88283582211,-7757.376835764,-9140.81855987748,-7796.56648658529,-3345.68662217841,1059.90595881194,-264.547633426221,-134.238377893505,398.786011319726, , , , , , , , , , , , , , , , , , , , , , , , , , , , , , , , , , , , , , , , , , , , , , , , , , , , , , , , , , , , ,
83.7621530433015,455.048139688697,371.285986645395,-2994.54748730284,-7745.34522700823,-9117.44095674885,-7822.72797355384,-3442.36487364714,1073.23246686812,-269.405146365999,-143.761916801047,413.167063167046, , , , , , , , , , , , , , , , , , , , , , , , , , , , , , , , , , , , , , , , , , , , , , , , , , , , , , , , , , , , ,
79.1663296436549,470.186016392075,391.01968674842,-3032.39947789646,-7724.37223431134,-9080.54643667131,-7832.27560615799,-3530.87131301206,1085.40835922476,-274.676173017865,-155.926678552383,430.602851570248, , , , , , , , , , , , , , , , , , , , , , , , , , , , , , , , , , , , , , , , , , , , , , , , , , , , , , , , , , , , ,
73.0014730961442,488.917613039378,415.916139943234,-3065.01855070384,-7695.10566146876,-9030.56579890908,-7827.15136129152,-3610.06543005904,1096.370747147,-280.959543067761,-171.457333423545,452.416876491306, , , , , , , , , , , , , , , , , , , , , , , , , , , , , , , , , , , , , , , , , , , , , , , , , , , , , , , , , , , , ,
65.2189644301095,507.528462910821,442.309498480712,-3091.9870791141,-7658.18627807339,-8968.25740081006,-7808.08546140796,-3677.42170982581,1106.0377359298,-286.373713670465,-188.545267025301,474.918980695766, , , , , , , , , , , , , , , , , , , , , , , , , , , , , , , , , , , , , , , , , , , , , , , , , , , , , , , , , , , , ,
55.8096445183565,523.978030411658,468.168385893301,-3112.92004660294,-7614.22980793427,-8894.23822111517,-7775.72851061849,-3733.76847472473,1114.31349630794,-289.893837465007,-206.179370687472,496.07320815248, , , , , , , , , , , , , , , , , , , , , , , , , , , , , , , , , , , , , , , , , , , , , , , , , , , , , , , , , , , , ,
44.8070136769476,539.731570524817,494.92455684787,-3127.49212964353,-7563.80610519981,-8809.50036663598,-7730.25344862537,-3780.20149221768,1121.09499257442,-292.269292100883,-225.058771585461,517.328063686344, , , , , , , , , , , , , , , , , , , , , , , , , , , , , , , , , , , , , , , , , , , , , , , , , , , , , , , , , , , , ,
32.2891701991831,551.449292382795,519.160122183612,-3135.45964929853,-7507.41804396713,-8714.47343073746,-7673.12577117445,-3816.95287265517,1126.28025177166,-291.869231290989,-243.435475992214,535.304707283203, , , , , , , , , , , , , , , , , , , , , , , , , , , , , , , , , , , , , , , , , , , , , , , , , , , , , , , , , , , , ,
18.3793735129233,556.563879164525,538.184505651602,-3136.67601879912,-7445.48294544552,-8610.50573039228,-7604.5003430261,-3844.13293042544,1129.77810906687,-287.471626338725,-259.902566069339,547.374192408064, , , , , , , , , , , , , , , , , , , , , , , , , , , , , , , , , , , , , , , , , , , , , , , , , , , , , , , , , , , , ,
3.24524809627805,558.55274887768,555.307500781402,-3131.10016204818,-7378.31920173031,-8498.77316125627,-7526.16933636417,-3862.36118058322,1131.51926425348,-280.898998486979,-276.031126342562,556.930124829541, , , , , , , , , , , , , , , , , , , , , , , , , , , , , , , , , , , , , , , , , , , , , , , , , , , , , , , , , , , , ,
-12.9033226051915,553.159201407719,566.06252401291,-3118.79808041664,-7306.14022822682,-8380.21870926632,-7439.12444015159,-3872.12709338206,1131.46822143607,-270.127939401264,-289.482923309051,559.610862710315, , , , , , , , , , , , , , , , , , , , , , , , , , , , , , , , , , , , , , , , , , , , , , , , , , , , , , , , , , , , ,
-29.8176106098163,544.276572372296,574.094182982112,-3099.93826783312,-7229.05706125767,-8256.20210712244,-7344.44436083755,-3873.83523725811,1129.63535304919,-257.22948088124,-301.955896795964,559.185377677204, , , , , , , , , , , , , , , , , , , , , , , , , , , , , , , , , , , , , , , , , , , , , , , , , , , , , , , , , , , , ,
-47.2147905842094,528.756890870505,575.971681454715,-3074.78203126203,-7147.08983892775,-8127.20175114996,-7244.77743540391,-3868.31419884054,1126.08806725715,-240.771050143148,-311.593236019462,552.36428616261, , , , , , , , , , , , , , , , , , , , , , , , , , , , , , , , , , , , , , , , , , , , , , , , , , , , , , , , , , , , ,
-64.7839659456185,504.802751405078,569.586717350696,-3043.66996678266,-7060.1871412175,-7994.12187039077,-7138.77522699107,-3856.84594621489,1120.9599543299,-220.00939272973,-317.185341648157,537.194734377887, , , , , , , , , , , , , , , , , , , , , , , , , , , , , , , , , , , , , , , , , , , , , , , , , , , , , , , , , , , , ,
-82.1932781290515,472.878080905491,555.071359034543,-3007.00586102864,-6968.25094295274,-7857.87885614647,-7029.3859346838,-3839.0730428291,1114.45684539344,-195.34240138822,-318.632318581797,513.974719970017, , , , , , , , , , , , , , , , , , , , , , , , , , , , , , , , , , , , , , , , , , , , , , , , , , , , , , , , , , , , ,
-99.0978205685019,436.811298712938,535.90911928144,-2965.23917053202,-6871.16406783598,-7718.89534658674,-6917.30742385928,-3816.74224147323,1106.85888922387,-168.856739072218,-317.503469924971,486.360208997189, , , , , , , , , , , , , , , , , , , , , , , , , , , , , , , , , , , , , , , , , , , , , , , , , , , , , , , , , , , , ,
-115.148129704509,393.576232951962,508.72436265647,-2918.84707573661,-6768.81678539227,-7577.8083301343,-6802.10731369028,-3788.29152518659,1098.51800551824,-139.214051623727,-311.936246180489,451.150297804216, , , , , , , , , , , , , , , , , , , , , , , , , , , , , , , , , , , , , , , , , , , , , , , , , , , , , , , , , , , , ,
-129.999167146167,345.214297017827,475.213464163993,-2868.31700944962,-6661.37361916762,-7434.77626140185,-6686.2145202304,-3755.26400830984,1089.85040422792,-107.60756493583,-302.60631565508,410.21388059091, , , , , , , , , , , , , , , , , , , , , , , , , , , , , , , , , , , , , , , , , , , , , , , , , , , , , , , , , , , , ,
-143.319812466266,292.233023368284,435.55283583455,-2814.13055188317,-6548.31465515901,-7291.73819572478,-6567.5818148319,-3718.52052691948,1081.32426920086,-74.4566054510091,-289.436324150408,363.892929601417, , , , , , , , , , , , , , , , , , , , , , , , , , , , , , , , , , , , , , , , , , , , , , , , , , , , , , , , , , , , ,
-154.802824629438,235.043636716513,389.846461345951,-2756.74961943714,-6430.00098626574,-7145.94987638511,-6448.42453616101,-3676.75523477045,1073.44315943482,-40.1204060435377,-272.324642987695,312.445049031232, , , , , , , , , , , , , , , , , , , , , , , , , , , , , , , , , , , , , , , , , , , , , , , , , , , , , , , , , , , , ,
-164.174961883441,174.20282463364,338.37778651708,-2696.60586275489,-6306.34138693796,-6999.52676839363,-6327.85099383729,-3630.01552314109,1066.72612490842,-5.01393137509961,-251.276374200261,256.29030557536, , , , , , , , , , , , , , , , , , , , , , , , , , , , , , , , , , , , , , , , , , , , , , , , , , , , , , , , , , , , ,
-171.206571828723,110.392326212431,281.598898041154,-2634.09404666323,-6177.7887882976,-6850.38110545741,-6205.53013360973,-3578.45774017376,1061.68590283778,30.4071228081456,-226.402734934938,195.995612126792, , , , , , , , , , , , , , , , , , , , , , , , , , , , , , , , , , , , , , , , , , , , , , , , , , , , , , , , , , , , ,
-175.719647590129,44.394828377237,220.114475967366,-2569.56986820942,-6044.14533315338,-6700.29350985547,-6082.19285840396,-3522.03689500965,1058.80679637718,65.6624096064459,-197.917061778747,132.254652172301, , , , , , , , , , , , , , , , , , , , , , , , , , , , , , , , , , , , , , , , , , , , , , , , , , , , , , , , , , , , ,
-177.593221102815,-21.6159771171186,155.977243985697,-2503.35220048104,-5906.03698783762,-6548.34773939036,-5956.35959016539,-3461.24507730565,1058.52389279276,99.6045991099668,-166.785232544256,67.1806334342892, , , , , , , , , , , , , , , , , , , , , , , , , , , , , , , , , , , , , , , , , , , , , , , , , , , , , , , , , , , , ,
-176.765065675189,-88.0410746880789,88.7239909871096,-2435.72920768681,-5763.780955128,-6394.62477993601,-5828.0871581137,-3394.37188196535,1061.20512510856,132.403070181634,-132.744528331149,0.341458149515366, , , , , , , , , , , , , , , , , , , , , , , , , , , , , , , , , , , , , , , , , , , , , , , , , , , , , , , , , , , , ,
-173.228993336602,-154.68310935067,18.5458839859327,-2366.96726402135,-5617.36113062582,-6237.89739734677,-5697.67352897753,-3322.34575256516,1067.13733571669,163.956051343636,-95.8874386612675,-68.0686126823684, , , , , , , , , , , , , , , , , , , , , , , , , , , , , , , , , , , , , , , , , , , , , , , , , , , , , , , , , , , , ,
-167.027532619962,-217.454071596272,-50.4265389763094,-2297.32122355526,-5467.51526898748,-6078.70150679328,-5563.94974993877,-3244.63901574171,1076.51702823975,192.240802108117,-58.3004968218264,-133.940305286291, , , , , , , , , , , , , , , , , , , , , , , , , , , , , , , , , , , , , , , , , , , , , , , , , , , , , , , , , , , , ,
-158.240402161008,-279.486532535685,-121.246130374677,-2231.42091237753,-5314.62190391424,-5917.02688032491,-5427.68869100553,-3161.46429163736,1089.44598761344,218.863467348346,-18.4971358931657,-200.366331455181, , , , , , , , , , , , , , , , , , , , , , , , , , , , , , , , , , , , , , , , , , , , , , , , , , , , , , , , , , , , ,
-146.969842252244,-339.243638103003,-192.273795850759,-2161.70156583799,-5159.48826938743,-5753.0138420243,-5287.98384384471,-3072.88847145581,1105.93149001225,243.106740177623,22.6519767992576,-265.758716976881, , , , , , , , , , , , , , , , , , , , , , , , , , , , , , , , , , , , , , , , , , , , , , , , , , , , , , , , , , , , ,
-133.324386660663,-391.963760692209,-258.639374031546,-2090.95462930656,-5002.07723090009,-5586.90504546253,-5146.20944923417,-2980.70299299835,1125.8904621602,262.644073676436,62.6574936854412,-325.301567361877, , , , , , , , , , , , , , , , , , , , , , , , , , , , , , , , , , , , , , , , , , , , , , , , , , , , , , , , , , , , ,
-117.402940464913,-444.514085150237,-327.111144685325,-2020.39268235443,-4843.18640383659,-5418.92246945588,-5002.69463618406,-2884.15486289635,1149.15669583361,280.958512807575,104.854102110206,-385.812614917781, , , , , , , , , , , , , , , , , , , , , , , , , , , , , , , , , , , , , , , , , , , , , , , , , , , , , , , , , , , , ,
-99.2810510458431,-488.625617907124,-389.344566861281,-1952.91206677361,-4683.30510968525,-5248.201893255,-4856.05450112286,-2783.00991723167,1175.49006832295,293.953334476483,145.031757907719,-438.985092384202, , , , , , , , , , , , , , , , , , , , , , , , , , , , , , , , , , , , , , , , , , , , , , , , , , , , , , , , , , , , ,
-79.0010610413415,-532.527165778137,-453.526104736796,-1883.60437285327,-4523.05333627461,-5075.95132943399,-4706.37886899595,-2677.55361901908,1204.58665395706,305.764113409739,187.262521847727,-493.026635257466, , , , , , , , , , , , , , , , , , , , , , , , , , , , , , , , , , , , , , , , , , , , , , , , , , , , , , , , , , , , ,
-56.5674648590279,-572.17969194426,-515.612227085233,-1818.30369434294,-4362.63519115769,-4902.80894350074,-4553.82969863648,-2568.11485883441,1236.08864192084,314.373578401644,229.522381113102,-543.895959514746, , , , , , , , , , , , , , , , , , , , , , , , , , , , , , , , , , , , , , , , , , , , , , , , , , , , , , , , , , , , ,
-31.9482906374218,-606.30890648135,-574.360615843928,-1751.39409109302,-4203.15312637772,-4728.56781530511,-4398.63584061528,-2455.06154626717,1269.59312033988,319.128598559386,271.206162603253,-590.334761162639, , , , , , , , , , , , , , , , , , , , , , , , , , , , , , , , , , , , , , , , , , , , , , , , , , , , , , , , , , , , ,
-5.08273565092672,-634.528498796148,-629.445763145221,-1691.73069690947,-4044.52236255212,-4553.84915780849,-4241.08717477643,-2338.44539208223,1304.82583237152,319.805617223537,312.181513747147,-631.987130970684, , , , , , , , , , , , , , , , , , , , , , , , , , , , , , , , , , , , , , , , , , , , , , , , , , , , , , , , , , , , ,
24.1053589031606,-662.121779411838,-686.227138314999,-1628.15243387495,-3886.22029362323,-4379.14649701017,-4081.52830592811,-2215.78496390446,1340.97890009945,319.008210254339,355.16624860908,-674.174458863419, , , , , , , , , , , , , , , , , , , , , , , , , , , , , , , , , , , , , , , , , , , , , , , , , , , , , , , , , , , , ,
55.6892433926075,-686.27751309943,-741.966756492037,-1570.11681622207,-3730.57997235721,-4206.18676482552,-3916.95934748338,-2094.21500948209,1377.81397517911,315.294134853411,398.827999942322,-714.122134795733, , , , , , , , , , , , , , , , , , , , , , , , , , , , , , , , , , , , , , , , , , , , , , , , , , , , , , , , , , , , ,
89.7178101366083,-707.446977072401,-797.164787209009,-1512.45035724201,-3574.99562556005,-4033.49415474267,-3753.85428292159,-1970.88870126602,1414.59755143587,308.864583467896,443.441298672809,-752.305882140705, , , , , , , , , , , , , , , , , , , , , , , , , , , , , , , , , , , , , , , , , , , , , , , , , , , , , , , , , , , , ,
126.192958346315,-724.858910473113,-851.051868819427,-1454.69864771633,-3422.44494213524,-3861.37419455471,-3590.630444439,-1846.38724322301,1451.6244770311,299.332976063399,488.622413582871,-787.95538964627, , , , , , , , , , , , , , , , , , , , , , , , , , , , , , , , , , , , , , , , , , , , , , , , , , , , , , , , , , , , ,
165.047961763676,-740.841011782907,-905.888973546582,-1404.45968235981,-3270.11169364972,-3690.11184209417,-3427.18579352609,-1721.34468705415,1486.78635307606,287.896525009615,535.468467655129,-823.364992664744, , , , , , , , , , , , , , , , , , , , , , , , , , , , , , , , , , , , , , , , , , , , , , , , , , , , , , , , , , , , ,
206.128996374491,-756.841735432415,-962.970731806906,-1350.36631261471,-3119.5764755582,-3519.96927202838,-3264.0431835849,-1596.44889611901,1520.83716319378,275.356369528962,584.549864090699,-859.906233619661, , , , , , , , , , , , , , , , , , , , , , , , , , , , , , , , , , , , , , , , , , , , , , , , , , , , , , , , , , , , ,
249.181731725713,-772.012767031445,-1021.19449875716,-1303.28456766672,-2970.70766540496,-3351.18686160465,-3101.743839407,-1469.63835009619,1551.90700476849,261.415517652866,635.188115241436,-896.603632894302, , , , , , , , , , , , , , , , , , , , , , , , , , , , , , , , , , , , , , , , , , , , , , , , , , , , , , , , , , , , ,
293.844434699859,-786.830889438593,-1080.67532413845,-1252.09736841386,-2829.58050284328,-3183.98719510545,-2940.84290141742,-1344.79476740743,1580.22620416425,246.493227369367,687.259879419155,-933.753106788522, , , , , , , , , , , , , , , , , , , , , , , , , , , , , , , , , , , , , , , , , , , , , , , , , , , , , , , , , , , , ,
339.648459111264,-801.69859009218,-1141.34704920344,-1206.39611474226,-2690.2387851266,-3018.58153024982,-2781.90527796131,-1224.86014395337,1604.58674713731,231.025065490458,740.497754157354,-971.522819647812, , , , , , , , , , , , , , , , , , , , , , , , , , , , , , , , , , , , , , , , , , , , , , , , , , , , , , , , , , , , ,
386.026400763394,-816.919216757659,-1202.94561752105,-1157.85096577135,-2552.60323137575,-2855.17786823692,-2625.50125796979,-1108.33630923139,1624.62564617965,215.446407997133,794.486009142223,-1009.93241713936, , , , , , , , , , , , , , , , , , , , , , , , , , , , , , , , , , , , , , , , , , , , , , , , , , , , , , , , , , , , ,
432.32763793026,-832.678128440774,-1265.00576637103,-1109.06824046873,-2411.2685080449,-2693.98959220427,-2472.20131325894,-996.084130375201,1639.68593997885,200.175245255257,848.666702150647,-1048.8419474059, , , , , , , , , , , , , , , , , , , , , , , , , , , , , , , , , , , , , , , , , , , , , , , , , , , , , , , , , , , , ,
477.840441251036,-849.031678526364,-1326.8721197774,-1065.16043906651,-2271.78783279921,-2535.24361767563,-2322.5695863769,-888.944429337922,1649.2056657934,185.595618637664,902.356280514218,-1087.95189915188, , , , , , , , , , , , , , , , , , , , , , , , , , , , , , , , , , , , , , , , , , , , , , , , , , , , , , , , , , , , ,
521.819311677978,-865.905183044693,-1387.72449472267,-1017.05930113498,-2136.28142770519,-2374.176850368,-2177.15568622591,-785.391580910329,1652.67429823463,172.042935683357,954.771903200325,-1126.81483888368, , , , , , , , , , , , , , , , , , , , , , , , , , , , , , , , , , , , , , , , , , , , , , , , , , , , , , , , , , , , ,
563.515727872138,-883.100081528851,-1446.61580940099,-968.635575250069,-2001.73184838905,-2216.71772226916,-2036.48458923587,-688.123131253121,1649.66876976405,159.792176828356,1005.06576863656,-1164.85794546492, , , , , , , , , , , , , , , , , , , , , , , , , , , , , , , , , , , , , , , , , , , , , , , , , , , , , , , , , , , , ,
602.210135203371,-899.818700271209,-1502.02883547458,-924.595927273726,-1870.36863769579,-2064.15769301868,-1901.04466405653,-601.117845152189,1639.87148817983,148.804282533919,1052.11948533897,-1200.92376787289, , , , , , , , , , , , , , , , , , , , , , , , , , , , , , , , , , , , , , , , , , , , , , , , , , , , , , , , , , , , ,
637.242863317443,-916.015192020066,-1553.25805533751,-875.947025113499,-1742.38151268922,-1915.55792551859,-1771.27410009082,-521.973557977645,1623.08519934471,139.386164351311,1095.25045932748,-1234.63662367879, , , , , , , , , , , , , , , , , , , , , , , , , , , , , , , , , , , , , , , , , , , , , , , , , , , , , , , , , , , , ,
668.041753524171,-931.769650517682,-1599.81140404185,-831.342080699625,-1617.63268239094,-1772.65156189032,-1646.21032889294,-451.051517153863,1599.24385258527,131.863948496755,1133.92657878301,-1265.79052727977, , , , , , , , , , , , , , , , , , , , , , , , , , , , , , , , , , , , , , , , , , , , , , , , , , , , , , , , , , , , ,
694.144595727117,-946.228466062616,-1640.37306178973,-782.722377680541,-1496.25279788775,-1634.62813527468,-1525.70832396108,-388.554281889152,1568.4189625183,126.041935167749,1167.25882875842,-1293.30076392617, , , , , , , , , , , , , , , , , , , , , , , , , , , , , , , , , , , , , , , , , , , , , , , , , , , , , , , , , , , , ,
715.214959945686,-958.916827280686,-1674.13178722637,-738.038574578099,-1378.97222924087,-1504.38081321111,-1415.02294452545,-334.517123346854,1530.82121675857,121.8509336675,1194.67337358603,-1316.52430725353, , , , , , , , , , , , , , , , , , , , , , , , , , , , , , , , , , , , , , , , , , , , , , , , , , , , , , , , , , , , ,
731.101953750661,-968.488532020008,-1699.59048577067,-690.161220049716,-1266.55806089869,-1378.85295989686,-1310.9669262489,-288.80641969387,1486.79724430527,118.693289134673,1215.34621976067,-1334.03950889534, , , , , , , , , , , , , , , , , , , , , , , , , , , , , , , , , , , , , , , , , , , , , , , , , , , , , , , , , , , , ,
743.51663893835,-975.26253711956,-1718.77917605791,-646.269161542478,-1158.27397504104,-1258.93218735376,-1213.50850598717,-251.125600698553,1436.8215855942,115.872949090605,1231.14790749813,-1347.02085658873, , , , , , , , , , , , , , , , , , , , , , , , , , , , , , , , , , , , , , , , , , , , , , , , , , , , , , , , , , , , ,
748.89777589766,-978.029056313626,-1726.92683221129,-600.106137402918,-1054.96039312239,-1145.5563385765,-1122.4987873572,-220.447648698161,1381.48407103041,114.565640207983,1237.91230405447,-1352.47794426246, , , , , , , , , , , , , , , , , , , , , , , , , , , , , , , , , , , , , , , , , , , , , , , , , , , , , , , , , , , , ,
749.124620782987,-977.391694414987,-1726.51631519797,-558.02293006815,-959.771040150215,-1038.07645692707,-1037.67513067347,-196.889960945733,1321.47306449032,114.133536816,1237.82046799048,-1351.95400480648, , , , , , , , , , , , , , , , , , , , , , , , , , , , , , , , , , , , , , , , , , , , , , , , , , , , , , , , , , , , ,
744.933967082491,-973.127211871354,-1718.06117895385,-514.550171327372,-866.299916879293,-937.438824547005,-958.670149882408,-180.439360281582,1257.55532377693,114.096622394432,1231.49757301817,-1345.5941954126, , , , , , , , , , , , , , , , , , , , , , , , , , , , , , , , , , , , , , , , , , , , , , , , , , , , , , , , , , , , ,
735.926087702808,-965.066724897239,-1700.99281260005,-474.142655038132,-778.3297631358,-843.677150045948,-885.025422293472,-169.380575158978,1190.55346731112,114.570318597216,1218.45945015143,-1333.02976874864, , , , , , , , , , , , , , , , , , , , , , , , , , , , , , , , , , , , , , , , , , , , , , , , , , , , , , , , , , , , ,
723.023533623676,-953.094518465182,-1676.11805208886,-435.135799461229,-694.341740666231,-753.142897019728,-816.208497275745,-162.874634869952,1121.32210943275,115.035492420753,1199.57079285627,-1314.60628527702, , , , , , , , , , , , , , , , , , , , , , , , , , , , , , , , , , , , , , , , , , , , , , , , , , , , , , , , , , , , ,
707.143247255398,-937.147019328597,-1644.290266584,-396.955580097289,-615.943198016283,-669.710285733289,-751.631640640178,-160.077324196325,1050.72359746228,115.001886036599,1175.7167569197,-1290.7186429563, , , , , , , , , , , , , , , , , , , , , , , , , , , , , , , , , , , , , , , , , , , , , , , , , , , , , , , , , , , , ,
687.340877323112,-917.212610977557,-1604.55348830067,-362.761693001867,-543.184043601006,-589.124078841754,-690.670956878372,-160.169922003575,979.604025370175,114.935866827223,1145.94718281189,-1260.88304963911, , , , , , , , , , , , , , , , , , , , , , , , , , , , , , , , , , , , , , , , , , , , , , , , , , , , , , , , , , , , ,
665.486384437106,-893.332719898364,-1558.81910433547,-328.305562665325,-471.060121757203,-512.075271463192,-632.684952152531,-162.385443905268,908.769968914126,113.923167730629,1112.15274438629,-1226.07591211692, , , , , , , , , , , , , , , , , , , , , , , , , , , , , , , , , , , , , , , , , , , , , , , , , , , , , , , , , , , , ,
649.192931923497,-865.604265776156,-1514.79719769965,-297.363235214036,-403.648118394075,-448.447230665623,-577.032061146429,-166.029316347417,838.966323067689,108.205666926329,1081.99506481157,-1190.2007317379, , , , , , , , , , , , , , , , , , , , , , , , , , , , , , , , , , , , , , , , , , , , , , , , , , , , , , , , , , , , ,
625.246313703255,-834.183187582355,-1459.42950128561,-266.198550582089,-340.611679171873,-392.111718015194,-523.087051929077,-170.493893788805,770.855748420732,104.46843693955,1042.33790749443,-1146.80634443398, , , , , , , , , , , , , , , , , , , , , , , , , , , , , , , , , , , , , , , , , , , , , , , , , , , , , , , , , , , , ,
600.356020060329,-799.28843129229,-1399.64445135262,-237.88115915708,-290.598780447595,-342.979330301075,-470.256517078112,-175.266698867798,705.000464094705,99.4662056159804,1000.00023570647,-1099.46644132245, , , , , , , , , , , , , , , , , , , , , , , , , , , , , , , , , , , , , , , , , , , , , , , , , , , , , , , , , , , , ,
570.666734212672,-761.205588254198,-1331.87232246687,-209.119785923323,-247.080675282887,-287.307151544284,-412.821425979088,-179.932727186663,641.847344374631,95.2694270207629,951.269528339771,-1046.53895536053, , , , , , , , , , , , , , , , , , , , , , , , , , , , , , , , , , , , , , , , , , , , , , , , , , , , , , , , , , , , ,
537.683969498499,-720.289309811416,-1257.97327930991,-182.412243086337,-197.387791786464,-231.837962711335,-357.506260919709,-174.502902004595,581.717393771557,91.3026701564581,897.828624404207,-989.131294560665, , , , , , , , , , , , , , , , , , , , , , , , , , , , , , , , , , , , , , , , , , , , , , , , , , , , , , , , , , , , ,
505.69328043392,-676.963655601045,-1182.65693603496,-154.853288487508,-148.46088885168,-196.465677481202,-304.281588449401,-174.737711877336,524.800632080317,85.6351875835624,844.175108234442,-929.810295818005, , , , , , , , , , , , , , , , , , , , , , , , , , , , , , , , , , , , , , , , , , , , , , , , , , , , , , , , , , , , ,
473.790935242327,-631.719627730675,-1105.510562973,-128.102346704259,-117.34793954735,-151.306273722557,-250.485325747113,-174.958886889458,471.157192197415,78.964346244174,789.650749107664,-868.615095351838, , , , , , , , , , , , , , , , , , , , , , , , , , , , , , , , , , , , , , , , , , , , , , , , , , , , , , , , , , , , ,
440.162962682933,-585.109290953098,-1025.27225363603,-100.892214767734,-76.114060298838,-97.4119568584833,-195.938396479008,-165.856088403562,420.725038794636,72.473164135082,732.717608159482,-805.190772294565, , , , , , , , , , , , , , , , , , , , , , , , , , , , , , , , , , , , , , , , , , , , , , , , , , , , , , , , , , , , ,
406.944531147684,-537.736082473087,-944.680613620771,-72.7683015098909,-29.6746968150039,-72.2712594828571,-140.568112888421,-154.816594584431,373.334215733964,65.3957756627016,675.812572384227,-741.208348046929, , , , , , , , , , , , , , , , , , , , , , , , , , , , , , , , , , , , , , , , , , , , , , , , , , , , , , , , , , , , ,
372.707522868053,-490.241170431948,-862.948693300001,-44.9681423146498,-7.80901140361618,-11.7020783248703,-84.4100328165858,-150.356006133333,328.727000647254,58.7668237819478,617.828108084027,-676.594931865975, , , , , , , , , , , , , , , , , , , , , , , , , , , , , , , , , , , , , , , , , , , , , , , , , , , , , , , , , , , , ,
338.25791337384,-443.286016126572,-781.543929500412,-15.2586376451559,48.2276665488238,19.3689506717193,-27.6045827448604,-128.083320309451,286.582853054412,52.5140513763662,559.900921437126,-612.414972813492, , , , , , , , , , , , , , , , , , , , , , , , , , , , , , , , , , , , , , , , , , , , , , , , , , , , , , , , , , , , ,
304.694314564382,-397.531633316632,-702.225947881014,14.4160666041036,73.0351213279281,61.1373096914469,36.9481906692508,-118.406221263254,246.546627519657,46.4186593761249,503.460131222698,-549.878790598823, , , , , , , , , , , , , , , , , , , , , , , , , , , , , , , , , , , , , , , , , , , , , , , , , , , , , , , , , , , , ,
271.031751945925,-353.615432632454,-624.647184578379,46.0738847373359,113.097717411908,107.525041999408,97.5160402841686,-100.529765400457,208.258192161884,41.2918403432646,447.839468262152,-489.131308605416, , , , , , , , , , , , , , , , , , , , , , , , , , , , , , , , , , , , , , , , , , , , , , , , , , , , , , , , , , , , ,
237.379369130307,-312.126971387476,-549.506340517783,77.5967129173444,150.580293947819,171.963162202327,154.126673843108,-82.5799780291902,171.381339385151,37.3738011285842,393.442854824045,-430.816655952629, , , , , , , , , , , , , , , , , , , , , , , , , , , , , , , , , , , , , , , , , , , , , , , , , , , , , , , , , , , , ,
203.875911326715,-273.584308736412,-477.460220063126,110.915123243545,197.054983127512,240.897734992356,172.058198021072,-56.8795054662541,135.629734955048,34.8541987048484,340.668065694921,-375.522264399769, , , , , , , , , , , , , , , , , , , , , , , , , , , , , , , , , , , , , , , , , , , , , , , , , , , , , , , , , , , , ,
170.69297518741,-238.412858030021,-409.105833217432,143.610955905913,257.978785882527,301.286091702596,195.646696776854,-27.5149745872102,100.787727222759,33.8599414213056,289.899404202421,-323.759345623726, , , , , , , , , , , , , , , , , , , , , , , , , , , , , , , , , , , , , , , , , , , , , , , , , , , , , , , , , , , , ,
138.034744126265,-206.928533385147,-344.963277511412,148.271939456273,303.032309573225,366.622373431733,258.179133868139,0.868305608909573,66.7242354603765,34.4468946294409,241.499010818838,-275.945905448279, , , , , , , , , , , , , , , , , , , , , , , , , , , , , , , , , , , , , , , , , , , , , , , , , , , , , , , , , , , , ,
106.134052917024,-179.326606729392,-285.460659646416,148.271939456273,360.361936355347,429.046685189069,317.441688484416,22.1303545071391,33.3986494275632,36.5962769061838,195.79735628172,-232.393633187904, , , , , , , , , , , , , , , , , , , , , , , , , , , , , , , , , , , , , , , , , , , , , , , , , , , , , , , , , , , , ,
75.2449058553709,-155.677115332446,-230.922021187817,180.185668473852,415.124757351555,488.305020849624,372.94467966552,48.5478631995451,0.858560383783342,40.2161047385374,153.083463521594,-193.299568260131, , , , , , , , , , , , , , , , , , , , , , , , , , , , , , , , , , , , , , , , , , , , , , , , , , , , , , , , , , , , ,
45.6319208253724,-135.927005931976,-181.558926757349,212.754414817199,467.148022106482,544.07076092051,425.472439663478,72.5587137610717,-30.7699822193479,45.1475425533018,113.595423791361,-158.742966344662, , , , , , , , , , , , , , , , , , , , , , , , , , , , , , , , , , , , , , , , , , , , , , , , , , , , , , , , , , , , ,
17.5575507046885,-119.908573490185,-137.466124194874,244.02816600022,515.548837752709,595.676273741816,472.504407661177,94.2099636078132,-61.2982781078818,51.1755113927481,77.5118374497811,-128.687348842529, , , , , , , , , , , , , , , , , , , , , , , , , , , , , , , , , , , , , , , , , , , , , , , , , , , , , , , , , , , , ,
-8.73175849800474,-107.35323928184,-98.6214807838355,273.627353235691,560.338369462431,643.379981391153,516.474525095935,113.750572657834,-88.4587705983427,58.0424988899223,44.9448611429154,-102.987360032838, , , , , , , , , , , , , , , , , , , , , , , , , , , , , , , , , , , , , , , , , , , , , , , , , , , , , , , , , , , , ,
-33.0191831000106,-97.9093851286205,-64.8902020286099,301.210813054634,601.228065809271,686.704544347807,556.049723848214,130.196575581132,-116.071869794072,65.4642841143154,15.9355094642997,-81.3997935786152, , , , , , , , , , , , , , , , , , , , , , , , , , , , , , , , , , , , , , , , , , , , , , , , , , , , , , , , , , , , ,
-55.1296987534779,-91.1628452471441,-36.0331464936662,326.492552664636,639.667375922931,725.601807434866,590.353653954802,143.623757015002,-142.138698751337,73.1462720003109,-9.54827612990584,-63.5979958704051, , , , , , , , , , , , , , , , , , , , , , , , , , , , , , , , , , , , , , , , , , , , , , , , , , , , , , , , , , , , ,
-74.9398327486492,-86.6587225915876,-11.7188898429384,349.255575896765,672.655998699771,760.781677243024,621.157882257188,154.89607000125,-165.855259925674,80.7992776701182,-31.6104714528553,-49.188806217263, , , , , , , , , , , , , , , , , , , , , , , , , , , , , , , , , , , , , , , , , , , , , , , , , , , , , , , , , , , , ,
-92.3842906520418,-83.9233664250656,8.46092422697621,369.361770325248,701.363810184271,791.223365358328,647.675954273095,164.228373986548,-187.471026094034,88.1538285385535,-50.422607439509,-37.7312210990446, , , , , , , , , , , , , , , , , , , , , , , , , , , , , , , , , , , , , , , , , , , , , , , , , , , , , , , , , , , , ,
-107.459042555376,-82.4855336882872,24.9735088670888,386.757089203045,728.272940626186,818.317469154346,670.86700205789,171.875580776819,-206.659238460337,94.9722881218315,-66.2162757112324,-28.7560124105992, , , , , , , , , , , , , , , , , , , , , , , , , , , , , , , , , , , , , , , , , , , , , , , , , , , , , , , , , , , , ,
-120.220720261446,-81.8958965282127,38.3248237332336,401.471623243321,749.920312886055,841.347980205481,690.915502233988,178.11834658662,-223.272656974021,101.058308394829,-79.27277199734,-21.7855363974895, , , , , , , , , , , , , , , , , , , , , , , , , , , , , , , , , , , , , , , , , , , , , , , , , , , , , , , , , , , , ,
-130.782426058729,-81.7441488482787,49.0382772104501,413.614613457074,769.878265809346,861.291064690598,708.207012333864,183.249214677912,-237.794978077647,106.263287453504,-89.9103516345895,-16.3529358189142, , , , , , , , , , , , , , , , , , , , , , , , , , , , , , , , , , , , , , , , , , , , , , , , , , , , , , , , , , , , ,
-139.306309643264,-81.6730587959856,57.6332508472785,423.364933158117,785.756364128586,878.646032515032,723.375363252672,187.559583036413,-249.519526554118,110.489684219625,-98.4697802452713,-12.0199039743535, , , , , , , , , , , , , , , , , , , , , , , , , , , , , , , , , , , , , , , , , , , , , , , , , , , , , , , , , , , , ,
-145.993551789289,-81.3889691514278,64.604582637861,430.957978133823,799.74101225308,893.464156798697,736.913313305419,191.327900001885,-259.34483951922,113.691260470358,-105.299067213575,-8.39219325678338, , , , , , , , , , , , , , , , , , , , , , , , , , , , , , , , , , , , , , , , , , , , , , , , , , , , , , , , , , , , ,
-151.072671903973,-80.6684670052437,70.4042048987296,436.67017584025,811.642327931004,906.390645775886,748.942629894234,194.809484348425,-267.063828281795,115.870569454608,-110.738438401351,-5.13213105325699, , , , , , , , , , , , , , , , , , , , , , , , , , , , , , , , , , , , , , , , , , , , , , , , , , , , , , , , , , , , ,
-154.787263267654,-79.3611738583402,75.4260894093135,440.80241915988,820.467207336637,917.815472608432,759.966857014382,198.228302870396,-272.649021712216,117.074218562997,-115.106676338484,-1.96754222451333, , , , , , , , , , , , , , , , , , , , , , , , , , , , , , , , , , , , , , , , , , , , , , , , , , , , , , , , , , , , ,
-157.384264511588,-77.388793071933,79.995471439655,443.663659453531,828.405133289883,929.262875314587,770.293769696729,201.770925866635,-276.377944060254,117.38652879176,-118.689867975621,1.30333918386107, , , , , , , , , , , , , , , , , , , , , , , , , , , , , , , , , , , , , , , , , , , , , , , , , , , , , , , , , , , , ,
-159.103679404995,-74.7406890284083,84.3629903765868,445.555709555583,836.493439986885,940.323705704151,780.455104456066,205.58274260985,-278.807570237857,116.922184216702,-121.733334890791,4.8111506740893, , , , , , , , , , , , , , , , , , , , , , , , , , , , , , , , , , , , , , , , , , , , , , , , , , , , , , , , , , , , ,
-160.17032539829,-71.4663899981117,88.7039354001784,446.760069891431,842.429114661543,949.992959573824,790.179904465199,209.766385766583,-280.040762521649,115.818357698201,-124.437130399234,8.61877270103334, , , , , , , , , , , , , , , , , , , , , , , , , , , , , , , , , , , , , , , , , , , , , , , , , , , , , , , , , , , , ,
-160.787824778568,-67.6655160972657,93.1223086813023,448.663946992161,848.219137598999,959.423702944006,800.066938579919,214.382218128176,-280.446761239653,114.226670437917,-126.955066729935,12.7283962920183, , , , , , , , , , , , , , , , , , , , , , , , , , , , , , , , , , , , , , , , , , , , , , , , , , , , , , , , , , , , ,
-160.650988067173,-63.4757216497933,97.1752664173795,449.206170575019,853.898608610305,970.217447035113,809.991190920488,219.450691626263,-280.294234789825,112.063354858483,-128.913127242276,16.8497723837931, , , , , , , , , , , , , , , , , , , , , , , , , , , , , , , , , , , , , , , , , , , , , , , , , , , , , , , , , , , , ,
-160.470819688849,-59.0593033735081,101.411516315341,449.692187338227,859.856180429779,980.512783817409,820.141432434641,224.956376085136,-279.832145548901,109.765061531179,-130.941168002095,21.1761064709166, , , , , , , , , , , , , , , , , , , , , , , , , , , , , , , , , , , , , , , , , , , , , , , , , , , , , , , , , , , , ,
-160.64760106239,-54.589181927445,106.058419134945,450.245975630553,865.76196380361,989.913459294184,830.532771865022,230.853431177901,-279.283112632483,107.618391494917,-133.353010098668,25.7346186037501, , , , , , , , , , , , , , , , , , , , , , , , , , , , , , , , , , , , , , , , , , , , , , , , , , , , , , , , , , , , ,
-160.883008488648,-50.2350340848505,110.647974403798,450.947703917096,871.938054726284,999.556616238787,841.139690253889,237.072239326847,-278.838572609712,105.559021286749,-135.765491446223,30.2064701594736, , , , , , , , , , , , , , , , , , , , , , , , , , , , , , , , , , , , , , , , , , , , , , , , , , , , , , , , , , , , ,
-161.371789054022,-46.1504226631985,115.221366390823,451.837152034872,878.390147474892,1009.42395306002,851.905396368415,243.526851627947,-278.655662008642,103.76110585861,-138.296577722422,34.5354718638123, , , , , , , , , , , , , , , , , , , , , , , , , , , , , , , , , , , , , , , , , , , , , , , , , , , , , , , , , , , , ,
-162.063883568486,-42.4617928449548,119.602090723531,452.919066288554,885.086333223976,1019.46599755801,862.752139681366,250.122856546015,-278.855642415805,102.26283820672,-140.832987146009,38.5701489392883, , , , , , , , , , , , , , , , , , , , , , , , , , , , , , , , , , , , , , , , , , , , , , , , , , , , , , , , , , , , ,
-162.349483250111,-39.2601269376403,123.089356312471,454.169955590806,891.967038948254,1029.6125707513,873.591887037306,256.765268336544,-279.523625080009,100.804805093875,-142.719419781291,41.9146146874151, , , , , , , , , , , , , , , , , , , , , , , , , , , , , , , , , , , , , , , , , , , , , , , , , , , , , , , , , , , , ,
-163.034305385815,-36.5958575809189,126.438447804896,455.54577719423,898.955411016226,1039.78334125875,884.336744556564,263.366032800233,-280.709344163926,99.8150814833668,-144.736376595356,44.9212951119887, , , , , , , , , , , , , , , , , , , , , , , , , , , , , , , , , , , , , , , , , , , , , , , , , , , , , , , , , , , , ,
-164.331731503984,-34.4773540119802,129.854377492004,456.989920665714,905.967465544214,1049.89781375316,894.908508655361,269.85075368561,-282.42877141766,99.404542757982,-147.093054497994,47.6885117400119, , , , , , , , , , , , , , , , , , , , , , , , , , , , , , , , , , , , , , , , , , , , , , , , , , , , , , , , , , , , ,
-165.662388383262,-32.8729677419576,132.789420641304,458.44090758007,912.921387979954,1059.88415330392,905.246769988381,276.164261347844,-284.666433164216,99.2676780626095,-149.225904512283,49.9582264496732, , , , , , , , , , , , , , , , , , , , , , , , , , , , , , , , , , , , , , , , , , , , , , , , , , , , , , , , , , , , ,
-166.960972885133,-31.7163096602751,135.244663224857,459.839293243694,919.745449905081,1069.68633468018,915.315072676939,282.274685580935,-287.378353648211,99.3386412727037,-151.102818054995,51.7641767822912, , , , , , , , , , , , , , , , , , , , , , , , , , , , , , , , , , , , , , , , , , , , , , , , , , , , , , , , , , , , ,
-168.119905221538,-30.91416532015,137.205739901388,461.133371540995,926.384117881666,1079.26922318753,925.104743308698,288.175760711204,-290.495589753281,99.5170352708438,-152.662822561463,53.1457872906189, , , , , , , , , , , , , , , , , , , , , , , , , , , , , , , , , , , , , , , , , , , , , , , , , , , , , , , , , , , , ,
-169.163085879329,-30.3562445601024,138.806841319227,462.283420324936,932.802069612817,1088.62134508115,934.636149101277,293.887185467624,-293.928335025806,99.7596652197155,-153.984963599278,54.2252983795621, , , , , , , , , , , , , , , , , , , , , , , , , , , , , , , , , , , , , , , , , , , , , , , , , , , , , , , , , , , , ,
-170.313763084487,-29.9258056851145,140.387957399373,463.2643620095,938.98600670686,1097.75528435184,943.957324379172,299.452985620707,-297.570556343821,100.119784384801,-155.35086024193,55.2310758571292, , , , , , , , , , , , , , , , , , , , , , , , , , , , , , , , , , , , , , , , , , , , , , , , , , , , , , , , , , , , ,
-171.264733628056,-29.5101138649709,141.754619763085,464.06683644363,944.944330784099,1106.70582848017,953.140113104016,304.937980443596,-301.305090987421,100.387423746513,-156.50967669557,56.122252949057, , , , , , , , , , , , , , , , , , , , , , , , , , , , , , , , , , , , , , , , , , , , , , , , , , , , , , , , , , , , ,
-171.766660743638,-29.0097260592598,142.756934684378,464.696780554763,950.704898401794,1115.52615578447,962.274190122113,310.42261686653,-305.009088243798,100.388193401449,-157.261797714008,56.8736043125592, , , , , , , , , , , , , , , , , , , , , , , , , , , , , , , , , , , , , , , , , , , , , , , , , , , , , , , , , , , , ,
-171.973358193743,-28.3457632970899,143.627594896653,465.173684647218,956.311185500995,1124.28249504175,971.459509584784,315.996578351249,-308.559641271535,100.159560745416,-157.800476545198,57.6409157997818, , , , , , , , , , , , , , , , , , , , , , , , , , , , , , , , , , , , , , , , , , , , , , , , , , , , , , , , , , , , ,
-171.583059581166,-27.4646135633512,144.118446017814,465.527761756385,961.817283173875,1133.04778442936,980.797853476357,321.751672870215,-311.839427670417,99.5238365722582,-157.85075279949,58.3269162272316, , , , , , , , , , , , , , , , , , , , , , , , , , , , , , , , , , , , , , , , , , , , , , , , , , , , , , , , , , , , ,
-170.927976122142,-26.3398462317703,144.588129890372,465.796328173987,967.282210977682,1141.89490635553,990.384203767945,327.774545544856,-314.74216058816,98.6339111769559,-157.758053006257,59.1241418293007, , , , , , , , , , , , , , , , , , , , , , , , , , , , , , , , , , , , , , , , , , , , , , , , , , , , , , , , , , , , ,
-169.755090285944,-24.9714523664111,144.783637919532,466.019737445492,972.764060931305,1150.890079175,1000.29864786821,334.139752691607,-317.177644676243,97.3632713261772,-157.269364102738,59.9060927765607, , , , , , , , , , , , , , , , , , , , , , , , , , , , , , , , , , , , , , , , , , , , , , , , , , , , , , , , , , , , ,
-168.19330130427,-23.382810544766,144.810490759504,466.237225154599,978.314474582713,1160.08695486117,1010.59946760504,340.90369111136,-319.076229207446,95.7880559245177,-156.501896031887,60.7138401073688, , , , , , , , , , , , , , , , , , , , , , , , , , , , , , , , , , , , , , , , , , , , , , , , , , , , , , , , , , , , ,
-166.205311754043,-21.6159771171186,144.589334636925,466.483013143919,983.973915589336,1169.52190970039,1021.31796761635,348.099814416532,-320.392447216133,93.9106444355808,-155.397323195484,61.4866787599032, , , , , , , , , , , , , , , , , , , , , , , , , , , , , , , , , , , , , , , , , , , , , , , , , , , , , , , , , , , , ,
-163.862760558872,-21.6159771171186,142.246783441754,466.783001224575,989.768132259818,1179.21091998432,1032.45546710793,355.735492499072,-321.107621665043,92.7393688379952,-153.054772000313,60.3154031623176, , , , , , , , , , , , , , , , , , , , , , , , , , , , , , , , , , , , , , , , , , , , , , , , , , , , , , , , , , , , ,
-161.122217019498,-21.6159771171186,139.50623990238,467.15234111053,995.706104263838,1189.14828262311,1043.98270714407,363.790776484185,-321.231216553957,91.3690970683082,-150.314228460939,58.9451313926306, , , , , , , , , , , , , , , , , , , , , , , , , , , , , , , , , , , , , , , , , , , , , , , , , , , , , , , , , , , , ,
-158.538230323927,-21.6159771171186,136.922253206808,467.59413139923,1001.77963926145,1199.30727778899,1055.84172485633,372.2192103239,-320.800732179562,90.0771037205224,-147.730241765367,57.6531380448447, , , , , , , , , , , , , , , , , , , , , , , , , , , , , , , , , , , , , , , , , , , , , , , , , , , , , , , , , , , , ,
-155.917714508153,-21.6159771171186,134.301737391035,468.099389160413,1007.96463811675,1209.64269101594,1067.95003477368,380.95067357377,-319.880011055824,88.7668458126357,-145.109725949594,56.3428801369581, , , , , , , , , , , , , , , , , , , , , , , , , , , , , , , , , , , , , , , , , , , , , , , , , , , , , , , , , , , , ,
-153.327105128834,-21.6159771171186,131.711128011715,468.648339052836,1014.22388499185,1220.09492907458,1080.20675154838,389.896051126142,-318.55594642793,87.4715411229759,-142.519116570274,55.0475754472983, , , , , , , , , , , , , , , , , , , , , , , , , , , , , , , , , , , , , , , , , , , , , , , , , , , , , , , , , , , , ,
-150.891496502693,-21.6159771171186,129.275519385574,469.212904563749,1020.51104553569,1230.59529328105,1092.50010424035,398.953328562547,-316.933756756935,86.2537368099054,-140.083507944133,53.8297711342278, , , , , , , , , , , , , , , , , , , , , , , , , , , , , , , , , , , , , , , , , , , , , , , , , , , , , , , , , , , , ,
-148.485267298416,-21.6159771171186,126.869290181297,469.760097326651,1026.77540017117,1241.07184441191,1104.71565793264,408.014548134698,-315.131164608974,85.050622207767,-137.677278739856,52.6266565320893, , , , , , , , , , , , , , , , , , , , , , , , , , , , , , , , , , , , , , , , , , , , , , , , , , , , , , , , , , , , ,
-146.530533440995,-21.6159771171186,124.914556323876,470.255837991872,1032.96675039837,1251.45524182501,1116.74450607103,416.972971714027,-313.271943129122,84.0732552790566,-135.722544882436,51.6492896033789, , , , , , , , , , , , , , , , , , , , , , , , , , , , , , , , , , , , , , , , , , , , , , , , , , , , , , , , , , , , ,
-144.717815973132,-21.6159771171186,123.101838856013,470.668682597087,1039.03995203602,1261.68398495457,1128.49073872869,425.729801751275,-311.47933642756,83.166896545125,-133.909827414572,50.7429308694474, , , , , , , , , , , , , , , , , , , , , , , , , , , , , , , , , , , , , , , , , , , , , , , , , , , , , , , , , , , , ,
-143.129168742454,-21.6159771171186,121.513191625335,470.972996669751,1044.95864230586,1271.70861180849,1139.87760790366,434.199896766446,-309.86983000454,82.3725729297861,-132.321180183895,49.9486072541085, , , , , , , , , , , , , , , , , , , , , , , , , , , , , , , , , , , , , , , , , , , , , , , , , , , , , , , , , , , , ,
-141.917935584988,-21.6159771171186,120.301958467869,471.151270095206,1050.69788986643,1281.49457638915,1150.85196525586,442.316055325451,-308.547675229164,81.766956351053,-131.109947026428,49.3429906753754, , , , , , , , , , , , , , , , , , , , , , , , , , , , , , , , , , , , , , , , , , , , , , , , , , , , , , , , , , , , ,
-141.05031788432,-21.6159771171186,119.434340767201,471.195435112951,1056.24565937663,1291.0236970044,1161.38671466784,450.031608460019,-307.600481451392,81.333147500719,-130.24232932576,48.9091818250414, , , , , , , , , , , , , , , , , , , , , , , , , , , , , , , , , , , , , , , , , , , , , , , , , , , , , , , , , , , , ,
-140.438407339532,-21.6159771171186,118.822430222414,471.107197363754,1061.60312020869,1300.29421705106,1171.48119470235,457.321244494142,-307.096082228135,81.0271922283253,-129.630418780973,48.6032265526477, , , , , , , , , , , , , , , , , , , , , , , , , , , , , , , , , , , , , , , , , , , , , , , , , , , , , , , , , , , , ,
-139.962450925143,-21.6159771171186,118.346473808025,470.897493114485,1066.78393233189,1309.31963733413,1181.15958411549,464.180182132198,-307.080754889925,80.7892140211307,-129.154462366584,48.3652483454531, , , , , , , , , , , , , , , , , , , , , , , , , , , , , , , , , , , , , , , , , , , , , , , , , , , , , , , , , , , , ,
-139.552643900957,-21.6159771171186,117.936666783838,470.585231723107,1071.81270289886,1318.12656044242,1190.46759701983,470.621982629697,-307.578741584211,80.5843105090376,-128.744655342398,48.1603448333599, , , , , , , , , , , , , , , , , , , , , , , , , , , , , , , , , , , , , , , , , , , , , , , , , , , , , , , , , , , , ,
-139.139359118787,-21.6159771171186,117.523382001669,470.195485208906,1076.7228301815,1326.75183901577,1199.46788186348,476.675415867138,-308.592918538183,80.3776681179527,-128.331370560228,47.953702442275, , , , , , , , , , , , , , , , , , , , , , , , , , , , , , , , , , , , , , , , , , , , , , , , , , , , , , , , , , , , ,
-138.658751814688,-21.6159771171186,117.042774697569,469.757288536549,1081.55395977192,1335.23935073158,1208.23463885414,482.38084508141,-310.106411684112,80.137364465903,-127.850763256128,47.7133987902253, , , , , , , , , , , , , , , , , , , , , , , , , , , , , , , , , , , , , , , , , , , , , , , , , , , , , , , , , , , , ,
-138.057193251215,-21.6159771171186,116.441216134097,469.301242158727,1086.34928270391,1343.63673159197,1216.84800844648,487.786567546731,-312.084956074769,79.8365851841668,-127.249204692656,47.4126195084892, , , , , , , , , , , , , , , , , , , , , , , , , , , , , , , , , , , , , , , , , , , , , , , , , , , , , , , , , , , , ,
-137.294222182917,-21.6159771171186,115.678245065798,468.857140611659,1091.15289233102,1351.99236934825,1225.38874972178,492.945456543238,-314.479817930908,79.4550996500175,-126.486233624358,47.0311339743399, , , , , , , , , , , , , , , , , , , , , , , , , , , , , , , , , , , , , , , , , , , , , , , , , , , , , , , , , , , , ,
-136.343999039357,-21.6159771171186,114.728021922238,468.451845994284,1096.00737505332,1360.35288103738,1233.93362554273,497.912120586019,-317.231113738169,78.9799880782375,-125.536010480797,46.5560224025599, , , , , , , , , , , , , , , , , , , , , , , , , , , , , , , , , , , , , , , , , , , , , , , , , , , , , , , , , , , , ,
-135.195462919964,-21.6159771171186,113.579485802845,468.107576887792,1100.9517545153,1368.76118944366,1242.55176541035,502.74066517963,-320.271356183524,78.405720018541,-124.387474361405,45.9817543428634, , , , , , , , , , , , , , , , , , , , , , , , , , , , , , , , , , , , , , , , , , , , , , , , , , , , , , , , , , , , ,
-133.851487229861,-21.6159771171186,112.235510112743,467.840725143598,1106.01986525466,1377.25520915566,1251.30212389716,507.483041612344,-323.439784440615,77.7337321734898,-123.043498671302,45.3097664978121, , , , , , , , , , , , , , , , , , , , , , , , , , , , , , , , , , , , , , , , , , , , , , , , , , , , , , , , , , , , ,
-132.327318620808,-21.6159771171186,110.71134150369,467.661273634207,1111.23920789562,1385.86708457936,1260.23202387565,512.187911410186,-326.842781609332,76.9716478689632,-121.519330062249,44.5476821932856, , , , , , , , , , , , , , , , , , , , , , , , , , , , , , , , , , , , , , , , , , , , , , , , , , , , , , , , , , , , ,
-130.648517423164,-21.6159771171186,109.032540306045,467.572863124961,1116.63032183907,1394.62289755628,1269.37668531963,516.899940872965,-330.125266357685,76.132247270141,-119.840528864604,43.7082815944633, , , , , , , , , , , , , , , , , , , , , , , , , , , , , , , , , , , , , , , , , , , , , , , , , , , , , , , , , , , , ,
-128.84855624393,-21.6159771171186,107.232579126811,467.573521936561,1122.20668933662,1403.54276626353,1278.75959324771,521.659451711091,-333.335315598905,75.2322666805241,-118.040567685371,42.8083010048465, , , , , , , , , , , , , , , , , , , , , , , , , , , , , , , , , , , , , , , , , , , , , , , , , , , , , , , , , , , , ,
-126.966208447851,-21.6159771171186,105.350231330733,467.657012120112,1127.97515359541,1412.6412680772,1288.39354358471,526.502372177368,-336.777233297164,74.2910927824848,-116.158219889292,41.8671271068072, , , , , , , , , , , , , , , , , , , , , , , , , , , , , , , , , , , , , , , , , , , , , , , , , , , , , , , , , , , , ,
