-108.253868493578,-81.2668052539159,26.9870632396618,116.279666525325,58.6369237958468,67.7251363077497,-8.2352846740754,-227.553120777312,-208.227425797229,94.7603368737471,-67.6204658666197,-27.1398710071273,834,893,880,834,880,892,834,874,892,834,830,880,1115,1082,1002,1090,1086,1087,1108,1084,1055,1051,925,1104,1223,1173,1142,1202,1208,1208,1209,1229,1167,1226,1211,1188,1553,1672,1477,1409,1405,1406,1402,1535,1473,1434,1404,1651,1250,1309,1296,1250,1296,1308,1250,1290,1308,1250,1245,1296,
-108.253868493578,-81.2668052539159,26.9870632396618,116.279666525325,58.6369237958468,67.7251363077497,-8.2352846740754,-227.553120777312,-208.227425797229,94.7603368737471,-67.6204658666197,-27.1398710071273,1756,1816,1803,1756,1803,1815,1756,1796,1815,1756,1752,1803,1170,1096,1056,1130,1130,1132,1131,1156,1095,1073,997,1146,1256,1192,1289,1231,1227,1228,1227,1307,1185,1304,1260,1203,1567,1673,1580,1494,1486,1483,1478,1563,1503,1567,1477,1661,2183,2243,2230,2183,2230,2242,2183,2223,2242,2183,2178,2230,
-108.253868493578,-81.2668052539159,26.9870632396618,116.279666525325,58.6369237958468,67.7251363077497,-8.2352846740754,-227.553120777312,-208.227425797229,94.7603368737471,-67.6204658666197,-27.1398710071273,2699,2758,2745,2699,2745,2758,2699,2792,2758,2699,2694,2745,1214,1157,1133,1157,1153,1154,1163,1215,1154,1214,1152,1171,1306,1249,1321,1249,1244,1245,1247,1354,1247,1379,1308,1295,1579,2687,1620,1557,1556,1547,1529,1606,1541,1636,1584,1666,3135,3194,3180,3135,3180,3193,3135,3173,3193,3135,3130,3180,
-108.253868493578,-81.2668052539159,26.9870632396618,116.279666525325,58.6369237958468,67.7251363077497,-8.2352846740754,-227.553120777312,-208.227425797229,94.7603368737471,-67.6204658666197,-27.1398710071273,3614,3672,3658,3614,3658,3671,3614,3652,3671,3614,3608,3658,2079,2075,2028,1788,2040,2104,1965,2039,2041,1942,2081,2041,1408,1305,1362,1294,1289,1288,1285,2163,1309,1415,1342,1358,2584,3388,2454,2331,2327,2391,2267,2476,2474,2280,2585,2459,4012,4070,4057,4012,4057,4069,4012,4050,4069,4012,4007,4057,
-108.253868493578,-81.2668052539159,26.9870632396618,116.279666525325,58.6369237958468,67.7251363077497,-8.2352846740754,-227.553120777312,-208.227425797229,94.7603368737471,-67.6204658666197,-27.1398710071273,4465,4524,4511,4465,4511,4524,4465,4504,4524,4465,4460,4511,2088,2084,2054,1905,2064,2127,1992,2087,2089,1971,2095,2057,1412,1412,2113,1343,1342,1344,1308,2241,2163,2094,1347,1472,2629,3469,2459,2424,2418,2480,2339,2503,2502,2353,2628,2460,4838,4899,4885,4838,4885,4899,4838,4879,4899,4838,4833,4885,
-108.253868493578,-81.2668052539159,26.9870632396618,116.279666525325,58.6369237958468,67.7251363077497,-8.2352846740754,-227.553120777312,-208.227425797229,94.7603368737471,-67.6204658666197,-27.1398710071273,5300,5360,5346,5300,5346,5360,5300,5340,5360,5300,5295,5346,2137,2111,2087,2047,2107,2171,2047,2138,2140,2009,2139,2087,2158,2159,2222,2103,2141,2205,1329,2291,2182,2162,2156,2168,2669,3529,2478,2491,2491,2546,2392,2535,2531,2513,2651,2542,5681,5741,5728,5681,5728,5740,5681,5722,5740,5681,5677,5728,
-108.253868493578,-81.2668052539159,26.9870632396618,116.279666525325,65.4050119873029,67.7251363077497,-8.2352846740754,-227.553120777312,-208.227425797229,94.7603368737471,-67.6204658666197,-27.1398710071273,6160,6220,6206,6160,6206,6218,6160,6200,6218,6160,6155,6206,3030,2731,2841,2731,2824,2819,2981,2982,3078,2886,3014,2977,2189,2179,2251,2182,2160,2224,1353,3115,2242,2239,2193,2176,3405,4346,3449,3274,3367,3269,3244,3418,3482,3227,3302,3386,6558,6618,6605,6558,6605,6617,6558,6599,6617,6558,6553,6605,
-108.253868493578,-81.2668052539159,26.9870632396618,116.279666525325,73.5058707297764,67.7251363077497,-8.2352846740754,-227.553120777312,-208.227425797229,94.7603368737471,-67.6204658666197,-27.1398710071273,7051,7110,7097,7051,7097,7110,7051,7091,7110,7051,7046,7097,3052,2772,2863,2822,3039,3017,3021,3039,3104,2933,3045,3021,2241,2237,2266,2227,2177,2242,2072,3192,2318,2279,2242,2229,3471,4360,3526,3377,3468,3367,3361,3451,3513,3391,3449,3483,7464,7523,7509,7464,7509,7523,7464,7503,7523,7464,7459,7509,
-108.253868493578,-81.2668052539159,26.9870632396618,116.279666525325,79.8805529361451,67.7251363077497,-8.2352846740754,-227.553120777312,-224.930297281188,94.7603368737471,-67.6204658666197,-27.1398710071273,7966,8024,8010,7966,8010,8024,7966,8004,8024,7966,7960,8010,3093,3022,2940,3022,3115,3851,3074,3081,3145,3017,3081,3869,2315,2428,2958,2278,2223,2284,2088,3244,2408,3069,2314,2383,3472,4369,3604,3446,3543,3439,3457,3504,3557,3466,3497,3524,8387,8445,8432,8387,8432,8444,8387,8425,8444,8387,8382,8432,
-158.799806287491,-162.343707510407,-3.54390122291634,116.279666525325,81.4532919339411,67.7251363077497,-8.2352846740754,-248.923818315072,-261.819621493577,160.571756898949,-77.627952532287,-82.9438043666618,8880,8940,8926,8880,8926,8938,8880,8960,8938,8880,8875,8926,3916,3806,3776,3838,3858,3894,3866,3863,3896,3735,3896,3883,2382,2456,3125,3028,2277,2343,2108,3992,3177,3138,2384,2401,3513,5183,4328,4157,4163,4151,4129,4298,4298,4100,4247,4226,9292,9356,9341,9292,9341,9353,9292,9416,9353,9292,9288,9341,
-230.025442752511,-217.126786276686,12.8986564758256,116.279666525325,81.5913243665001,67.7251363077497,-8.2352846740754,-263.289370425404,-285.903781445745,223.576114514599,-121.462049614168,-102.11406490043,9786,9991,9975,9786,9975,9987,9786,9952,9987,9786,9782,9975,3965,3837,3861,3892,3893,3931,3895,3916,3916,3769,3923,3949,3109,3036,3154,3134,3121,3023,2146,4006,3196,3190,3097,3038,4293,5192,4396,4254,4248,4248,4244,4326,4327,4225,4329,4311, , , , , , , , , , , , ,
-260.650839449392,-250.744062651371,9.90677679802084,116.279666525325,83.6733755240572,67.7251363077497,-8.2352846740754,-272.948263542927,-299.407369210871,255.697451050382,-135.278808123706,-120.418642926675, , , , , , , , , , , , ,4625,3873,3882,3937,3943,4684,3932,3962,3963,3834,3963,4575,3154,3188,3178,3179,3210,3130,2170,4068,3255,3226,3146,3179,4348,5199,4436,4319,4320,4312,4297,4366,4363,4355,4411,4333, , , , , , , , , , , , ,
-271.332771723751,-267.098482835437,4.23428888831395,116.279666525325,84.6263515424434,67.7251363077497,-8.2352846740754,-275.71552707049,-307.256590880251,269.215627279594,-137.783530306032,-131.432096973562, , , , , , , , , , , , ,4743,4682,3912,4561,4568,4711,4679,4652,4716,4529,4716,4606,3204,3250,3300,3229,3227,3172,2192,4122,3358,3918,3193,3351,5153,6046,5206,4976,4983,4971,4976,5059,5127,5000,4986,5225, , , , , , , , , , , , ,
-268.197773335747,-262.560777554674,5.63699578107335,116.279666525325,84.5217937167063,66.4535319008102,-8.2352846740754,-274.125149439956,-303.690354024364,265.379275445211,-136.91738455841,-128.461890886801, , , , , , , , , , , , ,4788,4737,4568,4628,4633,4783,4714,4676,4742,4553,4748,4706,3259,3988,3301,3975,3272,3230,2219,4753,3420,4014,3232,3979,5181,6072,5258,5082,5076,5075,5072,5091,5156,5028,5046,5262, , , , , , , , , , , , ,
-250.847884007196,-245.8263740231,5.02150998409561,116.279666525325,82.0672950328513,67.2047265014928,-8.2352846740754,-269.194743831914,-294.0567525205,248.337129015148,-127.934696995646,-120.402432019503, , , , , , , , , , , , ,5492,4788,4594,4660,4699,5537,4770,4719,4783,4596,4783,5407,3328,4010,3904,3992,3326,3970,3095,4772,3991,4067,3298,4006,5204,6114,6065,5154,5154,5148,5133,5138,5194,5125,5110,6047, , , , , , , , , , , , ,
-228.442816474078,-220.56832376063,7.87449271344794,116.279666525325,78.595278593602,67.7251363077497,-8.2352846740754,-261.929077982122,-280.653538000497,224.505570117354,-118.158654593763,-106.346915523591, , , , , , , , , , , , ,5521,5552,4706,5524,5542,5559,5524,5527,5552,5492,5488,5428,3984,4065,4049,4011,3969,3989,3110,4834,4010,4099,3983,4056,5951,6789,6130,5843,5819,5839,5846,5967,5965,5907,5935,6048, , , , , , , , , , , , ,
-197.763935840225,-190.274411580998,7.48952425922644,116.279666525325,76.4865878096782,67.7251363077497,-8.2352846740754,-253.22944236185,-264.631553080784,194.019173710612,-102.626730049725,-91.392443660886, , , , , , , , , , , , ,5591,5579,5378,5559,5559,5587,5556,5554,5586,5519,5551,5509,4018,4226,4223,4056,3989,4007,3131,4884,4069,4696,4022,4123,6004,6821,6149,5924,5916,5914,5907,5994,5996,6008,5995,6867, , , , , , , , , , , , ,
-165.164783093232,-157.903709130429,7.2610739628034,116.279666525325,74.7689035917734,67.7251363077497,-8.2352846740754,-243.936442443171,-247.88638832649,161.534246111831,-86.2129285280177,-75.3213175838129, , , , , , , , , , , , ,6408,5651,5424,5591,5599,6410,5623,6411,5619,5556,5587,6398,4068,4286,4226,4106,4006,4049,3169,5660,4130,4737,4069,4127,6054,6970,6901,5994,5991,5982,5961,6038,6035,6103,6053,6936, , , , , , , , , , , , ,
-133.183040402854,-125.777622020505,7.40541838234903,116.279666525325,72.8804697628292,67.7251363077497,-8.2352846740754,-234.734787907233,-231.391656354254,129.48033121168,-70.2942293926014,-59.1861018190781, , , , , , , , , , , , ,6461,6269,5605,6416,6392,6435,6288,6465,6444,5559,6441,6429,4131,4814,4730,4731,4050,4107,3193,5739,4817,4837,4110,4736,6838,7841,6951,6703,6711,6697,6703,6839,6839,6883,6793,7795, , , , , , , , , , , , ,
-108.253868493578,-96.5306354254446,11.723233068133,116.279666525325,70.9506236264995,67.7251363077497,-8.2352846740754,-227.553120777312,-216.208616555602,102.392251959511,-59.9885507808553,-42.403701178656, , , , , , , , , , , , ,6515,6364,6262,6438,6437,6477,6437,6510,6465,6161,6469,6465,4227,4835,4878,4837,4104,4796,3214,5826,4837,4917,4114,4884,6879,7912,7041,6803,6795,6791,6786,6874,6875,6962,6871,7860, , , , , , , , , , , , ,
-108.253868493578,-81.2668052539159,26.9870632396618,116.279666525325,69.0869259252408,68.6895292896446,-8.2352846740754,-227.553120777312,-208.227425797229,94.7603368737471,-67.6204658666197,-27.1398710071273, , , , , , , , , , , , ,7357,6447,6286,6483,6459,7302,6468,7347,6511,6211,6509,7161,4813,4894,4911,4882,4795,4815,3236,5887,4899,5588,4799,5050,6936,8666,7809,6876,6872,6862,6849,6920,6924,7556,6912,7945, , , , , , , , , , , , ,
-99.2548819556963,-70.3258292659013,28.9290526897948,116.279666525325,67.3737196525208,73.1404370834383,-8.2352846740754,-227.553120777312,-208.227425797229,84.790355610799,-64.0919673227454,-20.6983882880535, , , , , , , , , , , , ,7371,7414,6465,7307,7304,7343,7326,7411,7334,6355,7359,7291,4845,5063,4926,4933,4814,4833,3972,6536,4959,5633,4845,5653,7743,8715,7860,7626,7602,7621,7573,7792,7746,7653,7655,8670, , , , , , , , , , , , ,
-84.5048647019274,-54.4139709973031,30.0908937046242,116.279666525325,65.8722451070905,75.5025234668799,-7.57676769035778,-226.799413204402,-206.69652632116,69.4594178496154,-57.2978792032756,-12.1615386463397, , , , , , , , , , , , ,7406,7428,7129,7342,7344,7401,7346,7446,7370,7243,7374,7324,4899,5092,5049,5644,4832,4877,3988,6538,5660,5737,4898,5673,7773,8800,7932,7708,7700,7698,7693,7823,7777,7752,7761,8748, , , , , , , , , , , , ,
-75.2710795273554,-43.9536116200168,31.3174679073385,116.279666525325,64.6219474615193,78.0007944104957,-6.90492390620279,-223.474758969766,-200.986248661961,59.6123455736863,-53.2942737173468,-6.31807185633937, , , , , , , , , , , , ,8279,7465,7293,7374,7382,8078,7406,8228,7401,7273,7401,8071,4988,5714,5621,5660,4878,4933,4008,6616,5678,5772,4934,5727,7831,9591,8695,7776,7775,7768,7785,7879,7827,8637,7817,8832, , , , , , , , , , , , ,
-71.2352496441225,-38.3937875308222,32.8414621133001,116.279666525325,63.6426104934013,78.6660343020389,-6.62222237114794,-220.946263850873,-197.878026719361,54.8145185874725,-52.0383558787111,-2.77616270876132, , , , , , , , , , , , ,8290,8249,7356,7998,8099,8251,8242,8289,8248,7374,8248,8269,5051,5795,5721,5680,4932,5639,4046,6679,5740,6494,4967,5888,8659,9635,8778,8541,8553,8535,8487,8663,8664,8713,8631,9602, , , , , , , , , , , , ,
-71.8097259138397,-37.5192438168463,34.2904820969933,116.279666525325,62.9369814822815,78.5575002432732,-6.66429844362359,-220.116562735202,-196.910304842364,54.6644848653432,-53.0501040054164,-1.61438085992671, , , , , , , , , , , , ,8321,8285,8170,8074,8269,9130,8268,8327,8292,8043,8292,9192,5643,5947,5756,5726,5639,5658,4069,6765,5804,6560,5641,6526,8711,9774,8845,8630,8630,8622,8617,8703,8701,8801,8692,9699, , , , , , , , , , , , ,
-76.2190629591008,-40.1632632935127,36.0557996655879,116.279666525325,62.0091590631269,77.8246092338115,-7.24064799433547,-220.730829901954,-198.129823503574,58.1911631263069,-56.1374313123442,-2.05373181396265, , , , , , , , , , , , ,9196,8315,8200,8257,9136,9172,8321,9152,8347,8073,8315,9249,5655,6012,5891,5776,5658,5676,4090,7489,6538,6614,5692,6554,8755, ,9626,8703,8705,8692,8707,8753,8753,9519,8736,9783, , , , , , , , , , , , ,
-83.5782200439142,-46.0039160041581,37.574304039756,116.279666525325,61.1699212434759,76.8098368992814,-8.21717285223617,-221.888743071604,-200.548234036801,64.7910680240363,-60.5762620418349,-4.21480598220131, , , , , , , , , , , , ,9202,9164,8237,9136,9172,9229,9156,9203,9162,8289,9132, ,5738,6471,6486,6512,5676,5720,4116,7567,6556,6646,5740,6604,9572, ,9699,9455,9437,9417,9393,9572,9572,9632,9391, , , , , , , , , , , , , ,
-92.9636713894232,-53.5205014924175,39.4431698970056,116.279666525325,60.9534674909228,75.3384810226417,-8.2352846740754,-223.681846289704,-204.446659453065,73.2420864409205,-66.2034206432142,-7.03866579770618, , , , , , , , , , , , ,9235,9196,8927,9171,9189, ,9173,9251,9201,9008,9141, ,5849,6492,6598,6522,5721,5776,4797,7658,6618,7389,5809,6736,9608, ,9825,9535,9528,9525,9513,9604,9606, ,9532, , , , , , , , , , , , , ,
-103.474692214666,-62.6079613220325,40.8667308926337,116.279666525325,60.9781443074325,73.8239725748055,-8.2352846740754,-226.341347989914,-208.227425797229,83.0413267683495,-72.1707115536498,-10.8706152146996, , , , , , , , , , , , , ,9231,9160,9189, , ,9235, ,9229,9050,9148, ,5901,6548,6625,6557,5774,6516,4834,7720,6678,7465,6530,6769,9667, , ,9602,9600,9592,9611,9650,9653, ,9583, , , , , , , , , , , , , ,
-108.253868493578,-71.7479857007704,36.5058827928073,116.279666525325,61.1181293493481,72.1659084223747,-8.2352846740754,-227.553120777312,-208.227425797229,90.0009270971743,-72.3798756431924,-17.6210514539818, , , , , , , , , , , , , , ,9217, , , , , , ,9075, , ,6532,6610,6649,6602,6517,6534,4875,8366,7443,7520,6569,7355, , , , , , , , , , , , , , , , , , , , , , , , ,
-108.253868493578,-81.1127605214745,27.1411079721032,116.279666525325,61.3442219923588,70.4989441475787,-8.2352846740754,-227.553120777312,-208.227425797229,94.6833145075263,-67.6974882328404,-26.9858262746858, , , , , , , , , , , , , , , , , , , , , , , , ,6565,6670,6702,6654,6536,6552,4900,8443,7462,7556,6617,7508, , , , , , , , , , , , , , , , , , , , , , , , ,
-108.253868493578,-81.2668052539159,26.9870632396618,116.279666525325,61.6259555081057,69.1263647860443,-8.2352846740754,-227.553120777312,-208.631298007453,94.7603368737471,-67.6204658666197,-27.1398710071273, , , , , , , , , , , , , , , , , , , , , , , , ,6616,7494,6771,7392,6552,6594,4935,8494,7523,8305,6658,7590, , , , , , , , , , , , , , , , , , , , , , , , ,
-108.253868493578,-81.3897354573558,26.8641330362219,116.279666525325,61.9329957502834,67.7251363077497,-8.2352846740754,-227.553120777312,-213.725482163565,94.821801975467,-67.5590007648998,-27.2628012105671, , , , , , , , , , , , , , , , , , , , , , , , ,6674,7502,7382,7463,6598,6653,5639,9278,7582,8329,6734,7668, , , , , , , , , , , , , , , , , , , , , , , , ,
-108.253868493578,-87.4236815932939,20.8301869002838,116.279666525325,62.2365935807279,67.7251363077497,-8.2352846740754,-227.553120777312,-217.309851513161,97.838775043436,-64.5420276969307,-33.2967473465052, , , , , , , , , , , , , , , , , , , , , , , , ,6809,7579,7502,7508,6652,7423,5657,9348,8366,8442,7436,8284, , , , , , , , , , , , , , , , , , , , , , , , ,
-111.630864965139,-91.8693011621342,19.7615638030042,116.279666525325,62.5110495164748,67.7251363077497,-8.2352846740754,-227.553120777312,-220.179518097543,101.750083063637,-65.6962143840712,-36.0538686795653, , , , , , , , , , , , , , , , , , , , , , , , ,7438,7724,7528,7559,7422,7442,5678,9441,8384,8477,7474,8431, , , , , , , , , , , , , , , , , , , , , , , , ,
-114.096650084516,-94.7284620899811,19.3681879945347,116.279666525325,62.7350699850798,67.7251363077497,-8.2352846740754,-227.553120777312,-222.307910925903,104.412556087249,-66.7324190395252,-37.6801370477235, , , , , , , , , , , , , , , , , , , , , , , , ,7470,7743,7554,8280,7441,7459,5717,9497,8445,9201,7522,8494, , , , , , , , , , , , , , , , , , , , , , , , ,
-114.778126201345,-96.1061192587588,18.6720069425859,116.394121168008,62.892854379137,67.7251363077497,-8.2352846740754,-227.836738986413,-223.715351539907,105.442122730052,-66.7250665719652,-38.7170561580867, , , , , , , , , , , , , , , , , , , , , , , , ,7521,8334,7684,8386,7458,7501,5741, ,8504,9275,7586,8574, , , , , , , , , , , , , , , , , , , , , , , , ,
-113.859821413121,-96.3104674881331,17.5493539249877,116.549103761086,62.9747706589382,67.7251363077497,-8.2352846740754,-228.225164171215,-224.459255848794,105.085144450627,-65.7045876690542,-39.3805567815729, , , , , , , , , , , , , , , , , , , , , , , , ,7587,8440,8263,8431,7503,7559,5761, ,9271,9346,7625,9263, , , , , , , , , , , , , , , , , , , , , , , , ,
-111.589439056733,-95.3622736013979,16.227165455335,116.650569347311,62.9775429114604,67.7251363077497,-8.2352846740754,-228.17408453148,-224.624005923457,103.475856329066,-63.9083022560339,-39.5675540730317, , , , , , , , , , , , , , , , , , , , , , , , ,7682,8495,8424,8479,7557,8276,5786, ,9288,9381,8337,9285, , , , , , , , , , , , , , , , , , , , , , , , ,
-108.253868493578,-93.6719514946478,14.5819169989299,116.756153243,62.7041041941768,67.7251363077497,-8.2352846740754,-227.849105805075,-224.311200582309,100.962909994113,-61.4178927462537,-39.5450172478592, , , , , , , , , , , , , , , , , , , , , , , , ,8362,8572,8449,9205,8279,8352,6519, ,9349, ,8397,9338, , , , , , , , , , , , , , , , , , , , , , , , ,
-108.253868493578,-91.3536578124101,16.9002106811676,116.751729382748,61.6040722451029,67.7251363077497,-8.2352846740754,-227.553120777312,-223.630820198887,99.8037631529942,-62.5770395873726,-37.2267235656215, , , , , , , , , , , , , , , , , , , , , , , , ,8393,9266,8474,9291,8331,8382,6536, ,9411, ,8444,9450, , , , , , , , , , , , , , , , , , , , , , , , ,
-108.253868493578,-88.7674726877087,19.486395805869,116.686342583497,60.7138623811555,67.7251363077497,-8.2352846740754,-227.553120777312,-222.693655147499,98.5106705906435,-63.8701321497233,-34.6405384409201, , , , , , , , , , , , , , , , , , , , , , , , ,8443,9285,8601,9336,8387,8424,6555, , , ,8481,9511, , , , , , , , , , , , , , , , , , , , , , , , ,
-108.253868493578,-86.146696330263,22.1071721633147,116.504841773444,60.6109599445849,67.7251363077497,-8.66731184595046,-227.553120777312,-221.605176103483,97.2002824119206,-65.1805203284461,-32.0197620834744, , , , , , , , , , , , , , , , , , , , , , , , ,8508,9344,9241,9384,8431,8480,6594, , , ,8540, , , , , , , , , , , , , , , , , , , , , , , , , ,
-108.253868493578,-83.6866656549512,24.5672028386265,116.279666525325,60.4873303137355,67.7251363077497,-9.28195047717965,-227.553120777312,-220.460878861425,95.9702670742647,-66.410535666102,-29.5597314081626, , , , , , , , , , , , , , , , , , , , , , , , ,8634,9447,9332, ,8484,9250,6617, , , ,9173, , , , , , , , , , , , , , , , , , , , , , , , , ,
-108.253868493578,-81.5381112840716,26.715757209506,116.279666525325,60.3516650470364,67.7251363077497,-9.95903081847809,-227.553120777312,-219.343020304479,94.8959898888249,-67.4848128515418,-27.411177037283, , , , , , , , , , , , , , , , , , , , , , , , ,9270,9470,9377, ,9249,9269,6639, , , ,9240, , , , , , , , , , , , , , , , , , , , , , , , , ,
-108.253868493578,-81.2668052539159,26.9870632396618,116.279666525325,60.2126264477803,67.1995224572654,-10.7257965233233,-227.553120777312,-219.201094611614,94.7603368737471,-67.6204658666197,-27.1398710071273, , , , , , , , , , , , , , , , , , , , , , , , ,9298, ,9466, ,9269,9287,6670, , , ,9286, , , , , , , , , , , , , , , , , , , , , , , , , ,
-108.253868493578,-81.2668052539159,26.9870632396618,116.279666525325,60.0782517816081,66.5440965772333,-11.6061517730933,-227.553120777312,-218.514707240244,94.7603368737471,-67.6204658666197,-27.1398710071273, , , , , , , , , , , , , , , , , , , , , , , , ,9347, ,9510, ,9287,9330,7425, , , ,9321, , , , , , , , , , , , , , , , , , , , , , , , , ,
-108.253868493578,-81.2668052539159,26.9870632396618,116.279666525325,59.9555255396622,65.7584286121292,-12.6191846309719,-227.553120777312,-217.979814520106,94.7603368737471,-67.6204658666197,-27.1398710071273, , , , , , , , , , , , , , , , , , , , , , , , ,9412, , , ,9331,9384,7441, , , ,9385, , , , , , , , , , , , , , , , , , , , , , , , , ,
-106.151464028306,-81.2668052539159,24.8846587743896,116.279666525325,59.8500800930314,64.842165646458,-13.7777614423692,-227.553120777312,-218.515683564506,93.7091346411109,-65.5180614013475,-28.1910732397634, , , , , , , , , , , , , , , , , , , , , , , , ,9566, , , ,9383, ,7461, , , , , , , , , , , , , , , , , , , , , , , , , , , , , ,
-104.599200811277,-81.2668052539159,23.3323955573604,116.279666525325,59.7659568907939,63.8024183083084,-15.0873271600049,-227.553120777312,-218.536250061209,92.9330030325964,-63.9657981843183,-28.967204848278, , , , , , , , , , , , , , , , , , , , , , , , , , , , , , ,7498, , , , , , , , , , , , , , , , , , , , , , , , , , , , , ,
-102.992739696405,-81.2668052539159,21.7259344424891,116.279666525325,59.7053842922319,62.6533045090472,-16.545017563002,-227.553120777312,-218.428144601324,92.1297724751607,-62.359337069447,-29.7704354057136, , , , , , , , , , , , , , , , , , , , , , , , , , , , , , ,7523, , , , , , , , , , , , , , , , , , , , , , , , , , , , , ,
-102.386793841047,-81.2668052539159,21.1199885871305,116.279666525325,59.6685786586108,61.4152801858531,-18.1391436516646,-227.553120777312,-219.310157192711,91.8267995474814,-61.7533912140884,-30.0734083333929, , , , , , , , , , , , , , , , , , , , , , , , , , , , , , ,7544, , , , , , , , , , , , , , , , , , , , , , , , , , , , , ,
-102.095918164363,-81.2668052539159,20.8291129104472,116.279666525325,59.6536149011151,60.1143345352184,-19.8490692959281,-227.553120777312,-219.523448778062,91.6813617091398,-61.4625155374051,-30.2188461717346, , , , , , , , , , , , , , , , , , , , , , , , , , , , , , ,7565, , , , , , , , , , , , , , , , , , , , , , , , , , , , , ,
-102.454933744974,-81.2668052539159,21.1881284910582,116.279666525325,59.6564223476465,58.7811139790274,-21.6454814872341,-227.826208646176,-219.995863865654,91.8608694994452,-61.821531118016,-30.0393383814291, , , , , , , , , , , , , , , , , , , , , , , , , , , , , , ,8347, , , , , , , , , , , , , , , , , , , , , , , , , , , , , ,
-103.159528336509,-81.7618493032703,21.3976790332385,116.279666525325,59.6709518974082,57.4500086840543,-23.4910461050539,-228.802057228109,-221.066543608536,92.4606888198898,-62.2786036848735,-30.1820851350162, , , , , , , , , , , , , , , , , , , , , , , , , , , , , , ,8363, , , , , , , , , , , , , , , , , , , , , , , , , , , , , ,
-103.90621612745,-82.6234180856893,21.2827980417605,116.214742254764,59.689548327801,56.1582062411431,-25.3414424839746,-229.749633478624,-222.984298478011,93.2648171065698,-62.594507084605,-30.6703100219647, , , , , , , , , , , , , , , , , , , , , , , , , , , , , , ,8384, , , , , , , , , , , , , , , , , , , , , , , , , , , , , ,
-104.796615504221,-83.3352278740824,21.4613876301386,114.8755295711,59.7035489210349,54.9446955185689,-27.1467703494423,-230.613824816608,-224.697784374165,94.065921689152,-63.1290015671797,-30.9369201219721, , , , , , , , , , , , , , , , , , , , , , , , , , , , , , ,8421, , , , , , , , , , , , , , , , , , , , , , , , , , , , , ,
-105.766887527969,-83.9041490968486,21.8627384311198,113.583053031449,59.7041079159249,53.8491871601314,-28.8533179420859,-231.341007523762,-225.211071643999,94.8355183124088,-63.814812979544,-31.0207053328647, , , , , , , , , , , , , , , , , , , , , , , , , , , , , , ,8444, , , , , , , , , , , , , , , , , , , , , , , , , , , , , ,
-106.355885080341,-84.2319913602898,22.1238937200514,112.360486137799,59.6832101749815,52.9109047776668,-30.4056666857519,-231.881053732715,-225.509763644404,95.2939382203158,-64.2398894001962,-31.0540488201195, , , , , , , , , , , , , , , , , , , , , , , , , , , , , , ,8465, , , , , , , , , , , , , , , , , , , , , , , , , , , , , ,
-107.030437401984,-84.3374373924282,22.6930000095553,111.23046056579,59.6347839168586,52.16719456725,-31.7490878537402,-232.189232814993,-226.151439771415,95.6839373972061,-64.8617187057693,-30.8222186914367, , , , , , , , , , , , , , , , , , , , , , , , , , , , , , ,8483, , , , , , , , , , , , , , , , , , , , , , , , , , , , , ,
-106.943054456291,-84.3543726591117,22.5886817971795,110.214771462054,59.5557590673603,51.6519072014106,-32.8321656370435,-232.228040068923,-226.162213968625,95.6487135577017,-64.7658681267353,-30.8828454309664, , , , , , , , , , , , , , , , , , , , , , , , , , , , , , ,9250, , , , , , , , , , , , , , , , , , , , , , , , , , , , , ,
-105.766030779324,-84.0100747996751,21.755955979649,109.33382801985,59.3172663442904,51.3935386179058,-33.6095549060842,-231.968974390968,-225.972409354074,94.8880527894998,-63.7609933794865,-31.1270594100133, , , , , , , , , , , , , , , , , , , , , , , , , , , , , , ,9289, , , , , , , , , , , , , , , , , , , , , , , , , , , , , ,
-104.519382208041,-83.6341341614941,20.8852480465465,108.605799385528,59.0111242386442,51.4131852908588,-34.0447409416439,-231.394236516148,-225.678178453437,94.0767581847676,-62.7023151272935,-31.374443057474, , , , , , , , , , , , , , , , , , , , , , , , , , , , , , ,9327, , , , , , , , , , , , , , , , , , , , , , , , , , , , , ,
-104.025665455765,-82.89131634506,21.1343491107044,108.04550695968,58.9388888899823,51.7224612464138,-34.1126162296757,-230.498245387375,-225.359951944644,93.4584909004125,-62.5800072832344,-30.878483617178, , , , , , , , , , , , , , , , , , , , , , , , , , , , , , ,9350, , , , , , , , , , , , , , , , , , , , , , , , , , , , , ,
-102.428470080629,-82.0500542716134,20.3784158090156,107.663204550777,58.6986855927069,52.321606291668,-33.8016483247333,-229.288808823995,-224.476018341718,92.2392621761214,-61.4034429448222,-30.8358192312991, , , , , , , , , , , , , , , , , , , , , , , , , , , , , , ,9388, , , , , , , , , , , , , , , , , , , , , , , , , , , , , ,
-100.64558813739,-81.2668052539159,19.3787828834742,107.463431295452,58.6369237958468,53.1980588687696,-33.1154063362955,-227.787766040481,-223.441411000642,90.9561966956532,-60.0121855104321,-30.9440111852211, , , , , , , , , , , , , , , , , , , , , , , , , , , , , , , , , , , , , , , , , , , , , , , , , , , , , , , , , , , , ,
-98.9585672876404,-81.2668052539159,17.6917620337244,107.444113570699,58.6369237958468,54.3257629754754,-32.0732479909271,-227.553120777312,-222.111819530925,90.1126862707783,-58.3251646606822,-31.787521610096, , , , , , , , , , , , , , , , , , , , , , , , , , , , , , , , , , , , , , , , , , , , , , , , , , , , , , , , , , , , ,
-97.1559029172507,-81.2668052539159,15.8890976633346,107.596058613011,58.6369237958468,55.6654349292205,-30.7100309537069,-227.553120777312,-220.715183917279,89.2113540855835,-56.5225002902925,-32.6888537952909, , , , , , , , , , , , , , , , , , , , , , , , , , , , , , , , , , , , , , , , , , , , , , , , , , , , , , , , , , , , ,
-94.9850704251692,-80.2398363438986,14.7452340812705,107.902948999212,58.6369237958468,57.1659420591946,-29.0747851451399,-227.553120777312,-219.224935716204,87.6124533845341,-54.8651522532197,-32.7473011313143, , , , , , , , , , , , , , , , , , , , , , , , , , , , , , , , , , , , , , , , , , , , , , , , , , , , , , , , , , , , ,
-92.795988978631,-79.0489786806431,13.7470102979877,108.34191080436,58.6369237958468,58.7668385354532,-27.2283659403714,-225.365897423202,-217.513428909077,85.9224838296372,-53.2714996383092,-32.650984191328, , , , , , , , , , , , , , , , , , , , , , , , , , , , , , , , , , , , , , , , , , , , , , , , , , , , , , , , , , , , ,
-90.6197484639077,-78.0101247705736,12.6096236933339,108.884673861639,58.6369237958468,60.4019564772017,-25.2402083429958,-222.631235168682,-215.960441272146,84.3149366172408,-51.6146860786207,-32.7002505386201, , , , , , , , , , , , , , , , , , , , , , , , , , , , , , , , , , , , , , , , , , , , , , , , , , , , , , , , , , , , ,
-88.4952616565595,-77.1205057381492,11.3747559184102,109.499269129922,58.6369237958468,62.0037777324521,-23.1844134314087,-219.851952571533,-214.253786793691,82.8078836973545,-49.9350087874847,-32.8728749098697, , , , , , , , , , , , , , , , , , , , , , , , , , , , , , , , , , , , , , , , , , , , , , , , , , , , , , , , , , , , ,
-86.4679584073268,-76.3719248693308,10.0960335379958,110.152134210958,58.6369237958468,63.5005898577899,-21.1354934469129,-216.981667207201,-212.625540082661,81.419941638329,-48.2819959726612,-33.1379456656677, , , , , , , , , , , , , , , , , , , , , , , , , , , , , , , , , , , , , , , , , , , , , , , , , , , , , , , , , , , , ,
-84.9550275038067,-75.9615437737064,8.99348373010016,110.810448233851,58.6369237958468,64.7792388012412,-19.1641454068241,-215.195733551057,-211.148883243412,80.4582856387567,-46.9742556169533,-33.4840300218033, , , , , , , , , , , , , , , , , , , , , , , , , , , , , , , , , , , , , , , , , , , , , , , , , , , , , , , , , , , , ,
-83.5262736636985,-75.3751275981037,8.15114606559464,111.444506840225,58.6369237958468,65.8375397844084,-17.3333941382075,-213.679264248692,-209.870977386269,79.4507006309013,-45.8387098646464,-33.6119907662548, , , , , , , , , , , , , , , , , , , , , , , , , , , , , , , , , , , , , , , , , , , , , , , , , , , , , , , , , , , , ,
-82.2224357686685,-75.3366375229059,6.88579824576245,111.835116967342,58.6369237958468,66.5910625990474,-15.6953564773418,-212.361029120038,-208.827746822272,78.7795366457874,-44.5541170072153,-34.225419638572, , , , , , , , , , , , , , , , , , , , , , , , , , , , , , , , , , , , , , , , , , , , , , , , , , , , , , , , , , , , ,
-81.2006055198134,-75.4618459740093,5.73875954580389,112.06510864657,58.6369237958468,67.2486524680453,-14.2887726054553,-211.445081053614,-208.041855675685,78.3312257469115,-43.4696825328085,-34.8615432141029, , , , , , , , , , , , , , , , , , , , , , , , , , , , , , , , , , , , , , , , , , , , , , , , , , , , , , , , , , , , ,
-80.4783081565814,-75.9069076592234,4.57140049735781,112.265186480003,58.6369237958468,67.6654882830101,-13.2234893741014,-210.877319030832,-207.521552173979,78.1926079079026,-42.5248543269694,-35.667753580933, , , , , , , , , , , , , , , , , , , , , , , , , , , , , , , , , , , , , , , , , , , , , , , , , , , , , , , , , , , , ,
-80.0591051247842,-76.7278111648031,3.33129395998085,112.568596852358,58.6369237958468,67.7251363077497,-12.3984333804523,-210.695074420119,-207.260418583656,78.3934581447938,-41.6951995423824,-36.6982586024114, , , , , , , , , , , , , , , , , , , , , , , , , , , , , , , , , , , , , , , , , , , , , , , , , , , , , , , , , , , , ,
-80.3666223125718,-77.3895632286842,2.97705908388743,112.523932579002,58.6369237958468,67.7251363077497,-12.1544166443774,-210.753629653494,-207.238040367774,78.8780927706282,-41.6718406982295,-37.2062520723986, , , , , , , , , , , , , , , , , , , , , , , , , , , , , , , , , , , , , , , , , , , , , , , , , , , , , , , , , , , , ,
-81.3147424609268,-78.3854880907741,2.92925437015256,112.65522999977,58.6369237958468,67.690205099949,-11.9435055817127,-211.138087647922,-207.421565709471,79.8501152758506,-42.1219984155395,-37.728116860311, , , , , , , , , , , , , , , , , , , , , , , , , , , , , , , , , , , , , , , , , , , , , , , , , , , , , , , , , , , , ,
-81.7485241882458,-79.4237707235559,2.32475346468973,112.644385584549,58.6369237958468,67.4688936793451,-12.1376547710705,-211.416409297485,-207.7680534048,80.586147455901,-42.0366388264676,-38.5495086294333, , , , , , , , , , , , , , , , , , , , , , , , , , , , , , , , , , , , , , , , , , , , , , , , , , , , , , , , , , , , ,
-82.4310479803551,-80.4065118775941,2.02453610276088,112.893819042803,57.7617841272998,67.1228281335557,-12.2938648019987,-212.259047817667,-208.227425797229,81.4187799289748,-42.2277920415579,-39.1909878874168, , , , , , , , , , , , , , , , , , , , , , , , , , , , , , , , , , , , , , , , , , , , , , , , , , , , , , , , , , , , ,
-84.3878352098194,-81.4416128404453,2.94622236937393,113.069750050579,57.0331515717695,66.8922830072412,-12.5200644324594,-212.986733738971,-208.745792047458,82.9147240251325,-43.6670287895965,-39.2476952355359, , , , , , , , , , , , , , , , , , , , , , , , , , , , , , , , , , , , , , , , , , , , , , , , , , , , , , , , , , , , ,
-85.0798193974045,-82.325715531819,2.75410386558533,113.166216662637,56.38211152674,66.7271056161704,-12.8479688388676,-213.788181883796,-209.26890317323,83.7027674646119,-43.9169616314948,-39.7858058331171, , , , , , , , , , , , , , , , , , , , , , , , , , , , , , , , , , , , , , , , , , , , , , , , , , , , , , , , , , , , ,
-87.0209595684303,-82.9991275264185,4.02183204201165,113.159950894933,55.5690364608754,66.6127894724038,-13.1556933535694,-214.90246504993,-209.745526380097,85.0100435474246,-45.5213958052208,-39.4886477422037, , , , , , , , , , , , , , , , , , , , , , , , , , , , , , , , , , , , , , , , , , , , , , , , , , , , , , , , , , , , ,
-87.6884779470586,-83.4139513841908,4.27452656286768,113.732300832138,55.225548141341,66.7407108596779,-13.2904599125556,-215.926176064113,-210.130548962426,85.5512146656249,-45.981502254963,-39.5697124106618, , , , , , , , , , , , , , , , , , , , , , , , , , , , , , , , , , , , , , , , , , , , , , , , , , , , , , , , , , , , ,
-87.9258483684419,-83.534889145202,4.39095922323977,114.351019609494,55.1850662902794,66.7992957194283,-13.7633572588787,-216.780479186113,-210.387624488607,85.7303687568221,-46.1584037958407,-39.5719649609813, , , , , , , , , , , , , , , , , , , , , , , , , , , , , , , , , , , , , , , , , , , , , , , , , , , , , , , , , , , , ,
-87.8523658128796,-83.3433022440588,4.5090635688206,114.825783832011,55.4707389257196,67.0762676636657,-13.661504905751,-217.260239876692,-210.491169461175,85.5978340284694,-46.1807146908499,-39.4171193376193, , , , , , , , , , , , , , , , , , , , , , , , , , , , , , , , , , , , , , , , , , , , , , , , , , , , , , , , , , , , ,
-89.2577957083411,-82.8307808015832,6.42701490675781,115.25458899289,56.0665013881835,67.7028382995949,-13.3555213934832,-217.788501889283,-210.427534820046,86.0442882549623,-47.8424053075493,-38.2018829474129, , , , , , , , , , , , , , , , , , , , , , , , , , , , , , , , , , , , , , , , , , , , , , , , , , , , , , , , , , , , ,
-88.9614985116999,-82.15388629633,6.80761221536968,116.279666525325,56.7974292216337,67.8342611193182,-12.7043654578422,-218.045095306241,-210.19523048368,85.5576924040151,-47.8845553635346,-37.6731370404804, , , , , , , , , , , , , , , , , , , , , , , , , , , , , , , , , , , , , , , , , , , , , , , , , , , , , , , , , , , , ,
-89.5284385305525,-81.0544462244754,8.47399230607689,116.279666525325,57.4119418816931,68.7126895090577,-11.8946559492038,-218.141812284586,-209.804170657719,85.2914423775141,-49.0012154183145,-36.2902269591995, , , , , , , , , , , , , , , , , , , , , , , , , , , , , , , , , , , , , , , , , , , , , , , , , , , , , , , , , , , , ,
-88.2659603487853,-79.8245512161122,8.44140913267292,116.372277129218,58.3187139191751,69.6455775750507,-11.1219851770992,-218.098998308397,-209.2905189688,84.045255782449,-48.353684740729,-35.6915710417199, , , , , , , , , , , , , , , , , , , , , , , , , , , , , , , , , , , , , , , , , , , , , , , , , , , , , , , , , , , , ,
-88.3735309465422,-78.2999575383326,10.0735734082094,117.458623842376,58.6369237958468,70.585745082097,-10.0170292341695,-217.879458864086,-208.815127356413,83.3367442424376,-49.2235521773757,-34.1131920650618, , , , , , , , , , , , , , , , , , , , , , , , , , , , , , , , , , , , , , , , , , , , , , , , , , , , , , , , , , , , ,
-88.442110616132,-76.6481140793082,11.7939965368236,118.468609110505,58.6369237958468,71.4858299852937,-8.70269378759037,-217.629728782522,-208.094695424986,82.5451123477203,-50.1180535764776,-32.4270587712426, , , , , , , , , , , , , , , , , , , , , , , , , , , , , , , , , , , , , , , , , , , , , , , , , , , , , , , , , , , , ,
-87.7206656577894,-75.0358012405161,12.6848644172732,119.359569940724,59.6561538875498,72.302328311658,-8.2352846740754,-217.223271559589,-207.457468836973,81.3782334491529,-50.2027650375312,-31.1754684116217, , , , , , , , , , , , , , , , , , , , , , , , , , , , , , , , , , , , , , , , , , , , , , , , , , , , , , , , , , , , ,
-87.7062076032692,-73.3162946670871,14.389912936182,120.095232355696,60.4712518748135,72.9991198678651,-7.12222330307112,-216.747696511853,-206.74409300777,80.5112511351783,-51.0480602697255,-29.4631908654528, , , , , , , , , , , , , , , , , , , , , , , , , , , , , , , , , , , , , , , , , , , , , , , , , , , , , , , , , , , , ,
-86.2532064277232,-71.9799741123991,14.273232315324,120.648797142949,61.0345777105545,73.5500992225716,-5.64235530515834,-216.278487797098,-206.041511455953,79.1165902700613,-50.2632193715235,-28.8533708985378, , , , , , , , , , , , , , , , , , , , , , , , , , , , , , , , , , , , , , , , , , , , , , , , , , , , , , , , , , , , ,
-86.1887980164154,-70.4179632747239,15.7708347416914,121.005181092946,61.3159713856437,73.9406595671119,-4.18862375449727,-215.760371948938,-205.33130550683,78.3033806455698,-50.9798163790533,-27.3235642665165, , , , , , , , , , , , , , , , , , , , , , , , , , , , , , , , , , , , , , , , , , , , , , , , , , , , , , , , , , , , ,
-86.1725206047266,-69.0036155188147,17.1689050859117,121.162172158116,61.3043259573147,74.167939534187,-2.79045695345247,-215.261534748468,-204.804221695412,77.5880680617708,-51.670712845319,-25.9173552164518, , , , , , , , , , , , , , , , , , , , , , , , , , , , , , , , , , , , , , , , , , , , , , , , , , , , , , , , , , , , ,
-84.9584872753943,-67.7547028192355,17.2037844561586,121.130381602467,61.0075591374628,74.2399036658935,-1.47126399990141,-214.894326347552,-204.257311854829,76.3565950473151,-51.0811358657763,-25.2754591815387, , , , , , , , , , , , , , , , , , , , , , , , , , , , , , , , , , , , , , , , , , , , , , , , , , , , , , , , , , , , ,
-84.2198078326199,-66.6930548324265,17.5267530001933,120.932008917127,60.451063978552,74.1734577195902,-0.248468375533104,-214.493587682801,-203.813354530764,75.4564313325234,-50.8732804164064,-24.5831509161168, , , , , , , , , , , , , , , , , , , , , , , , , , , , , , , , , , , , , , , , , , , , , , , , , , , , , , , , , , , , ,
-85.0761630707228,-65.9964392282857,19.0797238424369,120.598560826083,59.6748486535706,73.9918881333571,0.865896893753575,-214.164115304937,-203.43403299247,75.5363011495044,-52.0779434565797,-23.4583576929246, , , , , , , , , , , , , , , , , , , , , , , , , , , , , , , , , , , , , , , , , , , , , , , , , , , , , , , , , , , , ,
-85.2005064507606,-65.3219553474225,19.8785511033378,120.167772738132,58.7296786429997,73.7219603605353,1.86422619842385,-214.048547433931,-203.099876119618,75.2612308990917,-52.5395287770491,-22.7217021220426, , , , , , , , , , , , , , , , , , , , , , , , , , , , , , , , , , , , , , , , , , , , , , , , , , , , , , , , , , , , ,
-85.0246939799043,-65.0830286336566,19.9416653462476,119.680060658275,57.6726061490364,73.3910163787016,2.74219001884142,-213.893518786739,-202.784857696101,75.0538613067806,-52.4831796630758,-22.5706816437047, , , , , , , , , , , , , , , , , , , , , , , , , , , , , , , , , , , , , , , , , , , , , , , , , , , , , , , , , , , , ,
-86.0439906162122,-64.7750332819189,21.2689573342931,119.174875443215,56.5623056662806,73.0243794174174,3.49754666812736,-213.839355629494,-202.607245472691,75.4095119490657,-53.6564739752525,-21.7530379738131, , , , , , , , , , , , , , , , , , , , , , , , , , , , , , , , , , , , , , , , , , , , , , , , , , , , , , , , , , , , ,
-86.7157333930175,-64.638927237964,22.0768061550533,118.687330615771,55.4546276868826,72.6433082798264,4.129044425017,-213.954542987202,-202.388715621727,75.6773303154909,-54.3962697740353,-21.2810605414556, , , , , , , , , , , , , , , , , , , , , , , , , , , , , , , , , , , , , , , , , , , , , , , , , , , , , , , , , , , , ,
-87.8979872405328,-64.8207111054496,23.077276135083,118.245426578733,54.3987359117042,72.2636561308172,4.63552795502061,-214.128094427089,-202.227589631894,76.3593491729914,-55.4876316878078,-20.8717174851835, , , , , , , , , , , , , , , , , , , , , , , , , , , , , , , , , , , , , , , , , , , , , , , , , , , , , , , , , , , , ,
-86.9130266559822,-65.0169825231912,21.8960441327908,117.868106733806,53.4341131885275,71.8952943439757,5.01535325041708,-214.428327926188,-202.126303313145,75.9650045895869,-54.4045353943863,-21.5604691952005, , , , , , , , , , , , , , , , , , , , , , , , , , , , , , , , , , , , , , , , , , , , , , , , , , , , , , , , , , , , ,
-88.542613448635,-65.3807760191228,23.1618374295121,117.564275053579,52.5886180367582,71.5422734675657,5.26619631018132,-215.157398561814,-202.090275315397,76.9616947338791,-55.8522254390734,-21.1094692948056, , , , , , , , , , , , , , , , , , , , , , , , , , , , , , , , , , , , , , , , , , , , , , , , , , , , , , , , , , , , ,
-90.2762826359215,-66.2834920592475,23.9927905766739,117.33280363591,51.8776628704789,71.2036205115114,5.38530410401829,-215.732362712804,-202.1272930799,78.2798873475847,-57.1345366062976,-21.145350741287, , , , , , , , , , , , , , , , , , , , , , , , , , , , , , , , , , , , , , , , , , , , , , , , , , , , , , , , , , , , ,
-92.1249494301072,-67.0659218399694,25.0590275901376,117.163475894057,51.3044836418972,70.828354547378,5.37018273953901,-216.450662927852,-202.2463436134,79.5954356350385,-58.5919885101222,-21.0034471249161, , , , , , , , , , , , , , , , , , , , , , , , , , , , , , , , , , , , , , , , , , , , , , , , , , , , , , , , , , , , ,
-94.0984834415666,-67.9665700121934,26.131913429373,117.0387433793,50.8613872552972,70.4393004012643,5.10095047716725,-217.389200810758,-202.456032927934,81.0325267268802,-60.1151984354696,-20.9173282914105, , , , , , , , , , , , , , , , , , , , , , , , , , , , , , , , , , , , , , , , , , , , , , , , , , , , , , , , , , , , ,
-96.2024734777695,-69.0591714299551,27.1433020478143,116.936113016677,50.5317960338565,70.0225997781705,4.34036726840252,-218.384761994758,-202.76280948656,82.6308224538625,-61.6728877627917,-20.9579346910706, , , , , , , , , , , , , , , , , , , , , , , , , , , , , , , , , , , , , , , , , , , , , , , , , , , , , , , , , , , , ,
-98.4351927407009,-70.3400022350049,28.0951905056958,116.83092434058,50.2928528008283,69.5521466136681,3.82323826230463,-219.502251134878,-203.294091919355,84.3875974878531,-63.2651916231982,-21.1224058646548, , , , , , , , , , , , , , , , , , , , , , , , , , , , , , , , , , , , , , , , , , , , , , , , , , , , , , , , , , , , ,
-100.785177182751,-71.9145130194499,28.8706641633011,116.699229820653,50.11830669982,69.1894126957318,2.87797904013933,-220.747638111789,-203.805192721309,86.3498451011007,-64.827920673026,-21.5219244280747, , , , , , , , , , , , , , , , , , , , , , , , , , , , , , , , , , , , , , , , , , , , , , , , , , , , , , , , , , , , ,
-103.22971602219,-73.5557198589206,29.6739961632697,116.520471061012,49.9813786457437,68.793393674898,2.24552688820477,-222.041315027008,-204.689518654224,88.3927179405557,-66.4518560927299,-21.9408618478257, , , , , , , , , , , , , , , , , , , , , , , , , , , , , , , , , , , , , , , , , , , , , , , , , , , , , , , , , , , , ,
-105.734415128444,-75.352917354686,30.3814977737578,116.279666525325,49.8573185623951,68.4183134988989,1.53456537891059,-223.37617850583,-205.713066800993,90.5436662415652,-68.0579564511008,-22.4857097904643, , , , , , , , , , , , , , , , , , , , , , , , , , , , , , , , , , , , , , , , , , , , , , , , , , , , , , , , , , , , ,
-109.949148777823,-77.3299942712922,32.6191545065307,115.968892453541,49.7254167675642,68.0454686419035,0.773931342061804,-224.71521255477,-206.433148887249,93.6395715245578,-71.2841516421767,-22.355419882381, , , , , , , , , , , , , , , , , , , , , , , , , , , , , , , , , , , , , , , , , , , , , , , , , , , , , , , , , , , , ,
-112.428653098373,-79.3513801882048,33.0772729101676,115.587926773074,49.5703067957162,67.6885671171284,-0.00262591390396594,-226.014691213554,-207.19076674036,95.8900166432888,-72.7529630042699,-23.1370536390188, , , , , , , , , , , , , , , , , , , , , , , , , , , , , , , , , , , , , , , , , , , , , , , , , , , , , , , , , , , , ,
-114.80682402354,-81.4251709981816,33.3816530253579,115.1440158734,49.3824807670389,67.3640257387044,-0.75809655641417,-227.233637406318,-208.227425797229,98.1159975108608,-74.0942385244486,-24.0217589864121, , , , , , , , , , , , , , , , , , , , , , , , , , , , , , , , , , , , , , , , , , , , , , , , , , , , , , , , , , , , ,
-117.018920032748,-83.5459960645428,33.4729239682055,114.65081151253,49.1580253295394,67.0893201391424,-1.45435578171437,-228.33144923052,-209.14930299352,100.282458048646,-75.2459220004768,-25.0365360481689, , , , , , , , , , , , , , , , , , , , , , , , , , , , , , , , , , , , , , , , , , , , , , , , , , , , , , , , , , , , ,
-119.00064518867,-85.5716620734718,33.4289831151981,114.126610052593,48.8976768477678,66.8810624606741,-2.0546233021234,-229.27167030792,-209.95660616881,102.286153631071,-76.2148141519339,-26.0713394791371, , , , , , , , , , , , , , , , , , , , , , , , , , , , , , , , , , , , , , , , , , , , , , , , , , , , , , , , , , , , ,
-120.692167972796,-87.488076715427,33.2040912573688,113.592099996071,48.6053806825394,66.7530293457387,-2.52602065131033,-230.02447496242,-210.482594742948,104.090122344112,-76.9481296150822,-27.1419927290294, , , , , , , , , , , , , , , , , , , , , , , , , , , , , , , , , , , , , , , , , , , , , , , , , , , , , , , , , , , , ,
-122.042050563175,-89.2364242979791,32.8056262651957,113.067872956061,48.2866013808734,66.7143699674683,-2.84200261979823,-230.568897083177,-211.14565197087,105.639237430577,-77.4238384141851,-28.2153990163919, , , , , , , , , , , , , , , , , , , , , , , , , , , , , , , , , , , , , , , , , , , , , , , , , , , , , , , , , , , , ,
-123.010750224732,-90.7597277360117,32.2510224887204,112.571971871166,47.9466504205823,66.7681925728068,-2.98446334862861,-230.894637475373,-211.666200191954,106.885238980372,-77.6308863567262,-29.2543526236458, , , , , , , , , , , , , , , , , , , , , , , , , , , , , , , , , , , , , , , , , , , , , , , , , , , , , , , , , , , , ,
-123.573374041416,-92.0939641954931,31.4794098459223,112.117740436331,47.5892700813532,66.9106686532077,-2.9453626875573,-231.00331731547,-211.837025721364,107.833669118454,-77.5263919436688,-30.3072771747856, , , , , , , , , , , , , , , , , , , , , , , , , , , , , , , , , , , , , , , , , , , , , , , , , , , , , , , , , , , , ,
-123.721471759415,-93.0177648879624,30.7037068714525,111.712200705242,47.2156444627374,67.1307213700048,-2.72776921218412,-230.909086137969,-211.724308384502,108.369618323689,-77.2125893154336,-31.1570290082552, , , , , , , , , , , , , , , , , , , , , , , , , , , , , , , , , , , , , , , , , , , , , , , , , , , , , , , , , , , , ,
-123.463823949179,-93.6334550021018,29.8303689470771,111.355123248745,46.8239225782954,67.4102938788928,-2.34626070535854,-230.638529110611,-211.531065359247,108.548639475641,-76.6470964481279,-31.9015430275126, , , , , , , , , , , , , , , , , , , , , , , , , , , , , , , , , , , , , , , , , , , , , , , , , , , , , , , , , , , , ,
-122.826355979068,-93.8391560833923,28.9871998956759,111.038872607432,46.4092565139017,67.7251363077497,-1.82665399480676,-230.229844171416,-211.262822144115,108.33275603123,-75.906777937372,-32.4259780938584, , , , , , , , , , , , , , , , , , , , , , , , , , , , , , , , , , , , , , , , , , , , , , , , , , , , , , , , , , , , ,
-121.851400226571,-93.8310099546422,28.0203902719285,110.749017896562,45.9642903598686,68.0460116971523,-1.20505721980613,-229.731284143252,-211.062549663678,107.841205090607,-74.9358952492496,-32.9053098413571, , , , , , , , , , , , , , , , , , , , , , , , , , , , , , , , , , , , , , , , , , , , , , , , , , , , , , , , , , , , ,
-120.596506243253,-93.3538722656583,27.2426339775947,110.465604966753,45.4799846901749,68.3401984807888,-0.526261382528684,-229.198898610806,-210.390282506796,106.975189254456,-73.9195701104238,-33.0556191440321, , , , , , , , , , , , , , , , , , , , , , , , , , , , , , , , , , , , , , , , , , , , , , , , , , , , , , , , , , , , ,
-119.132905383294,-93.0888819136178,26.0440234696756,110.164913344155,44.946631980132,68.5731601482463,0.158476484078324,-228.69366781595,-209.935453691117,106.110893648456,-72.5884644264845,-33.5224292219713, , , , , , , , , , , , , , , , , , , , , , , , , , , , , , , , , , , , , , , , , , , , , , , , , , , , , , , , , , , , ,
-117.543645231301,-91.9078194758297,25.6358257554711,109.821490403663,44.354916914604,68.7102655663628,0.794162093097146,-228.278179290356,-209.251925026454,104.725732353565,-71.5897354933858,-33.1359968601795, , , , , , , , , , , , , , , , , , , , , , , , , , , , , , , , , , , , , , , , , , , , , , , , , , , , , , , , , , , , ,
-115.921348924673,-90.459141597086,25.4622073275867,109.721045520272,43.6969021180577,68.7184764480021,1.32516823132152,-228.013037099559,-208.714909172142,103.19024526088,-70.6917781261297,-32.4984671347499, , , , , , , , , , , , , , , , , , , , , , , , , , , , , , , , , , , , , , , , , , , , , , , , , , , , , , , , , , , , ,
-114.365513430866,-88.8049336075267,25.560579823339,109.346473806284,42.9668692609403,68.5679629750499,1.53904495214407,-228.272691695592,-208.227425797229,101.585223519196,-69.9630466271023,-31.622176892094, , , , , , , , , , , , , , , , , , , , , , , , , , , , , , , , , , , , , , , , , , , , , , , , , , , , , , , , , , , , ,
-112.979248834651,-87.1396277292486,25.8396211054018,108.990075705601,42.1620024200425,68.2336424658033,1.21545798265543,-228.79774009311,-207.781289316494,100.05943828195,-69.409434970026,-30.6500033119236, , , , , , , , , , , , , , , , , , , , , , , , , , , , , , , , , , , , , , , , , , , , , , , , , , , , , , , , , , , , ,
-111.865419085869,-85.8376325479924,26.0277865378765,108.59174782865,41.2829334413468,67.6966301084472,0.976220160237563,-229.293185293574,-207.580941652446,98.8515258169309,-68.9466028118727,-29.9049230050581, , , , , , , , , , , , , , , , , , , , , , , , , , , , , , , , , , , , , , , , , , , , , , , , , , , , , , , , , , , , ,
-111.122283039125,-84.2695302563836,26.8527527827413,107.845673768825,40.3341519518961,66.6252039525221,-0.026878205187483,-230.146361911452,-207.69428806336,97.6959066477545,-68.9875179109331,-28.7083887368214, , , , , , , , , , , , , , , , , , , , , , , , , , , , , , , , , , , , , , , , , , , , , , , , , , , , , , , , , , , , ,
-110.838894674151,-82.9832251637506,27.8556695104002,106.8721332831,39.5821597728777,65.6565980001432,-0.666036302618817,-231.700026376548,-207.933644097167,96.911059918951,-69.3472820922754,-27.5637778266754, , , , , , , , , , , , , , , , , , , , , , , , , , , , , , , , , , , , , , , , , , , , , , , , , , , , , , , , , , , , ,
-111.090624414507,-82.3075889042459,28.7830355102609,106.267892501074,39.2300772573051,64.2900923177353,-2.31659695559024,-233.192451824971,-208.390107667078,96.6991066593766,-69.9368299623838,-26.7622766969927, , , , , , , , , , , , , , , , , , , , , , , , , , , , , , , , , , , , , , , , , , , , , , , , , , , , , , , , , , , , ,
-111.935175825918,-81.8504937150849,30.0846821108329,105.183686335906,38.2242890977811,62.8089864951545,-3.62051161084669,-235.036800029765,-209.111589523758,96.8928347705016,-71.0099289683753,-25.8829058021262, , , , , , , , , , , , , , , , , , , , , , , , , , , , , , , , , , , , , , , , , , , , , , , , , , , , , , , , , , , , ,
-113.409411866477,-82.4494743108742,30.9599375556026,104.331746890799,37.2320685186772,61.2507735077907,-5.52612095261464,-236.984122024005,-210.085945734575,97.9294430886757,-72.1846747110396,-25.744768377636, , , , , , , , , , , , , , , , , , , , , , , , , , , , , , , , , , , , , , , , , , , , , , , , , , , , , , , , , , , , ,
-115.527204503837,-83.2580367309035,32.2691677729335,103.065824455087,36.4865997287376,59.4952472104256,-7.28899923364987,-239.08402262441,-211.202752649666,99.3926206173705,-73.8981861383852,-25.4944344789853, , , , , , , , , , , , , , , , , , , , , , , , , , , , , , , , , , , , , , , , , , , , , , , , , , , , , , , , , , , , ,
-118.278406627192,-84.5924705887685,33.6859360384232,101.766901972233,35.8539733674597,57.5503411743805,-9.91786349623596,-241.338717203893,-212.506900918538,101.43543860798,-75.9821713328074,-25.4532672751729, , , , , , , , , , , , , , , , , , , , , , , , , , , , , , , , , , , , , , , , , , , , , , , , , , , , , , , , , , , , ,
-121.628944727067,-86.9102518676343,34.7186928594328,100.490354057576,34.9570199804225,55.6821116305009,-11.8084673493826,-243.505422567254,-214.013349598728,104.269598297351,-78.1738187932499,-26.095779504101, , , , , , , , , , , , , , , , , , , , , , , , , , , , , , , , , , , , , , , , , , , , , , , , , , , , , , , , , , , , ,
-125.521972660397,-89.6248143100577,35.8971583503388,99.2646008868563,34.3169565427764,53.6541225368352,-13.6801123946983,-245.632981022322,-215.460222047776,107.573393485227,-80.7095655053676,-26.8638279798596, , , , , , , , , , , , , , , , , , , , , , , , , , , , , , , , , , , , , , , , , , , , , , , , , , , , , , , , , , , , ,
-129.880006245787,-92.9860220542012,36.8939841915857,98.1142916544241,33.9634949626724,51.7666010218323,-16.3229861446092,-248.231928896805,-217.001886789125,111.433014149994,-83.3869952186862,-28.046018931308, , , , , , , , , , , , , , , , , , , , , , , , , , , , , , , , , , , , , , , , , , , , , , , , , , , , , , , , , , , , ,
-134.607934634065,-96.8586802937728,37.7492543402917,97.0343309873449,33.4269808823568,49.871586685187,-17.9976610390977,-250.379159730084,-218.495081286078,115.733307463919,-86.178594487178,-29.5547129767407, , , , , , , , , , , , , , , , , , , , , , , , , , , , , , , , , , , , , , , , , , , , , , , , , , , , , , , , , , , , ,
-139.596751639313,-101.648766758564,37.9479848807486,96.0883766460162,32.9045437961602,48.1152706890211,-19.6105482716879,-253.242715018313,-220.027009899835,120.622759198939,-88.7723682600305,-31.850390938908, , , , , , , , , , , , , , , , , , , , , , , , , , , , , , , , , , , , , , , , , , , , , , , , , , , , , , , , , , , , ,
-144.727797708009,-106.271823488127,38.4559742198825,95.2599424911481,32.527190622252,46.1170395284045,-21.0812145661168,-254.806948280406,-221.711908300375,125.499810598068,-91.5918859639457,-33.9079246341223, , , , , , , , , , , , , , , , , , , , , , , , , , , , , , , , , , , , , , , , , , , , , , , , , , , , , , , , , , , , ,
-149.877297874948,-111.198285103222,38.6790127717258,94.1522119429071,32.2807430025288,44.5066046929818,-22.3326977254402,-256.575441045838,-222.955103482521,130.537791489086,-94.2781553233369,-36.2596361657485, , , , , , , , , , , , , , , , , , , , , , , , , , , , , , , , , , , , , , , , , , , , , , , , , , , , , , , , , , , , ,
-154.921016730302,-116.413530730038,38.5074860002645,93.563239839508,32.1275925358531,42.957743658977,-23.4175802309706,-258.297717787971,-224.097251851944,135.66727373017,-96.7142513652834,-38.9530223648869, , , , , , , , , , , , , , , , , , , , , , , , , , , , , , , , , , , , , , , , , , , , , , , , , , , , , , , , , , , , ,
-159.73886898505,-121.33841315039,38.40045583466,92.9889566180137,31.7175390620642,41.4906059715144,-24.2698134731255,-259.744269041681,-225.009214204283,140.53864106772,-99.0696624098548,-41.4689786578651, , , , , , , , , , , , , , , , , , , , , , , , , , , , , , , , , , , , , , , , , , , , , , , , , , , , , , , , , , , , ,
-164.219291101104,-125.98708878962,38.2322023114838,92.6222692804851,31.8745871545398,40.2457288363545,-25.0146013867172,-260.819697455439,-226.009432790112,145.103189945362,-101.225746706294,-43.8774432390684, , , , , , , , , , , , , , , , , , , , , , , , , , , , , , , , , , , , , , , , , , , , , , , , , , , , , , , , , , , , ,
-168.263134076189,-130.268896957924,37.9942371182646,92.3569327820147,31.6768255674899,39.5238661059928,-25.7407018889109,-261.599937030467,-226.514451727061,149.266015517057,-103.128685597227,-46.1373299198301, , , , , , , , , , , , , , , , , , , , , , , , , , , , , , , , , , , , , , , , , , , , , , , , , , , , , , , , , , , , ,
-171.786837253731,-134.051979917557,37.7348573361745,91.70038031222,31.7190385141305,38.7955441211151,-26.45912566222,-262.477877029836,-226.924628432902,152.919408585644,-104.760847294953,-48.1585612906912, , , , , , , , , , , , , , , , , , , , , , , , , , , , , , , , , , , , , , , , , , , , , , , , , , , , , , , , , , , , ,
-174.724701372506,-137.224236999101,37.5004643734045,91.6228212827418,31.4930950314516,38.2848695460217,-27.0159591052844,-262.861445684159,-226.997944038804,155.974469185804,-106.112582872955,-49.8618863128485, , , , , , , , , , , , , , , , , , , , , , , , , , , , , , , , , , , , , , , , , , , , , , , , , , , , , , , , , , , , ,
-177.030174007052,-139.697592677626,37.3325813294267,91.6360985444198,31.8267996027757,38.0881666062731,-27.6399723704003,-263.026007111022,-227.015933545718,158.363883342339,-107.181377668239,-51.1825056740997, , , , , , , , , , , , , , , , , , , , , , , , , , , , , , , , , , , , , , , , , , , , , , , , , , , , , , , , , , , , ,
-178.676171116618,-141.410578897959,37.2655922186595,91.7417509761987,31.6770690804248,38.3899987886138,-27.9256850721511,-262.780928400991,-226.676932462352,160.043375007289,-107.970881667639,-52.07249333965, , , , , , , , , , , , , , , , , , , , , , , , , , , , , , , , , , , , , , , , , , , , , , , , , , , , , , , , , , , , ,
-179.654562801062,-142.329196763883,37.3253660371787,91.9378081027027,31.8725147391978,38.8317184455019,-28.2197853730487,-262.613638980227,-226.30071414976,160.991879782473,-108.48996441912,-52.5019153633525, , , , , , , , , , , , , , , , , , , , , , , , , , , , , , , , , , , , , , , , , , , , , , , , , , , , , , , , , , , , ,
-179.975016419868,-142.446209998671,37.5288064211976,92.2436180999888,32.2817888988405,39.5719157841737,-28.3453759131924,-262.223937095854,-225.6534125494,161.21061320927,-108.751911420533,-52.4587017887367, , , , , , , , , , , , , , , , , , , , , , , , , , , , , , , , , , , , , , , , , , , , , , , , , , , , , , , , , , , , ,
-179.663399682804,-141.77915215039,37.884247532414,92.6620430611562,32.3879689492365,40.3681645720753,-28.6420946118958,-261.965010475023,-224.812388864279,160.721275916597,-108.773823607609,-51.9474523089881, , , , , , , , , , , , , , , , , , , , , , , , , , , , , , , , , , , , , , , , , , , , , , , , , , , , , , , , , , , , ,
-178.759923458143,-140.367412692271,38.3925107658719,93.0930892490327,32.7617302845126,41.7427486000454,-28.9336104955056,-261.466999281282,-223.962763495907,159.563668075207,-108.576217112007,-50.9874509631997, , , , , , , , , , , , , , , , , , , , , , , , , , , , , , , , , , , , , , , , , , , , , , , , , , , , , , , , , , , , ,
-177.317177759339,-138.268811457306,39.0483663020326,93.7712712635734,33.2782237988146,43.0460467917768,-29.1866574521972,-260.941361123,-222.872252940398,157.792994608322,-108.182772030686,-49.6102225776369, , , , , , , , , , , , , , , , , , , , , , , , , , , , , , , , , , , , , , , , , , , , , , , , , , , , , , , , , , , , ,
-175.398182997419,-135.55606327118,39.8421197262395,94.599049503159,33.7140244030629,44.5442983861799,-29.4425803564777,-260.525338481321,-221.765472724374,155.4771231343,-107.620151361829,-47.8569717724703, , , , , , , , , , , , , , , , , , , , , , , , , , , , , , , , , , , , , , , , , , , , , , , , , , , , , , , , , , , , ,
-173.07453019837,-132.313468863279,40.7610613350902,95.3996640148765,34.2377104071477,46.5589441376165,-29.5456023093611,-260.00399635945,-220.480913895102,152.693999530825,-106.91779576673,-45.7762037640948, , , , , , , , , , , , , , , , , , , , , , , , , , , , , , , , , , , , , , , , , , , , , , , , , , , , , , , , , , , , ,
-170.424627392252,-128.634062884997,41.790564507255,96.5679817883304,35.1183890921906,48.3923723291651,-29.453034356203,-259.279970507911,-219.172009605713,149.529345138625,-106.107595949754,-43.4217491888714, , , , , , , , , , , , , , , , , , , , , , , , , , , , , , , , , , , , , , , , , , , , , , , , , , , , , , , , , , , , ,
-167.532026539468,-124.617334339353,42.9146922001149,97.9259319928671,35.9415084572734,50.5669875102239,-29.3723040485962,-258.282767999919,-218.501965421338,146.07468043941,-105.223359369791,-40.8513210696191, , , , , , , , , , , , , , , , , , , , , , , , , , , , , , , , , , , , , , , , , , , , , , , , , , , , , , , , , , , , ,
-164.483785751854,-120.367523795389,44.1162619564642,99.4841537723149,36.8971887920274,52.8357917711805,-29.6204178566288,-257.181152494638,-217.609272286927,142.425654773622,-104.300023854159,-38.1256309194627, , , , , , , , , , , , , , , , , , , , , , , , , , , , , , , , , , , , , , , , , , , , , , , , , , , , , , , , , , , , ,
-161.368812143751,-115.992386431284,45.3764257124662,101.108084606049,38.4428708411217,55.1383638599217,-29.1848478585866,-256.338363889804,-216.588103879387,138.680599287518,-103.372618928108,-35.3079803594093, , , , , , , , , , , , , , , , , , , , , , , , , , , , , , , , , , , , , , , , , , , , , , , , , , , , , , , , , , , , ,
-158.276111120046,-111.602180045443,46.6739310746028,103.085869033321,40.0237996054633,57.663123120572,-28.6270311865371,-255.042338430724,-215.962355737606,134.939145582745,-102.475021097325,-32.4641244854205, , , , , , , , , , , , , , , , , , , , , , , , , , , , , , , , , , , , , , , , , , , , , , , , , , , , , , , , , , , , ,
-155.292841598615,-107.308517286765,47.9843243118497,105.273457064163,41.6569144118102,60.092312528914,-27.9681811086759,-253.679247111543,-215.230663872082,131.30067944269,-101.638582955232,-29.662096487458, , , , , , , , , , , , , , , , , , , , , , , , , , , , , , , , , , , , , , , , , , , , , , , , , , , , , , , , , , , , ,
-152.502078108521,-103.22267049861,49.2794076099111,107.408430965868,43.3587854163221,62.6961060760924,-27.3817732517364,-252.174203203736,-214.412154663142,127.862374303566,-100.890742859216,-26.9716314443496, , , , , , , , , , , , , , , , , , , , , , , , , , , , , , , , , , , , , , , , , , , , , , , , , , , , , , , , , , , , ,
-149.980244872466,-99.4933438566375,50.4869010158285,109.982188909221,45.1426401388434,65.2844900688097,-26.7471395986643,-250.555667539871,-213.532081787192,124.736794364552,-100.233572944147,-24.5032214204047, , , , , , , , , , , , , , , , , , , , , , , , , , , , , , , , , , , , , , , , , , , , , , , , , , , , , , , , , , , , ,
-147.794314573053,-96.1416303958101,51.6526841772428,112.588722971053,47.0159643140892,67.8272165712943,-25.8951377512416,-248.551642121219,-212.621567439207,121.967972484432,-99.7234993751478,-22.2444731092839, , , , , , , , , , , , , , , , , , , , , , , , , , , , , , , , , , , , , , , , , , , , , , , , , , , , , , , , , , , , ,
-145.999013357222,-93.9769858094649,52.0220275477567,115.448537999639,48.9790213448839,70.3001903503394,-24.9484962065857,-247.003588216418,-211.716788143506,119.987999583343,-99.0105204524891,-20.9774791308543, , , , , , , , , , , , , , , , , , , , , , , , , , , , , , , , , , , , , , , , , , , , , , , , , , , , , , , , , , , , ,
-144.634377614602,-92.3058067397967,52.3285708748052,118.393497201393,50.924036808905,72.6806319223568,-23.9009992327384,-245.535551690781,-210.841398997422,118.4700921772,-98.4814742447035,-19.988617932496, , , , , , , , , , , , , , , , , , , , , , , , , , , , , , , , , , , , , , , , , , , , , , , , , , , , , , , , , , , , ,
-143.724014602501,-91.8916180046247,51.8323965978765,121.066576709246,52.9507110428322,74.9480541163622,-22.8634368033259,-244.013006808667,-210.086207994461,117.807816303563,-97.7782056001888,-20.0296107033743, , , , , , , , , , , , , , , , , , , , , , , , , , , , , , , , , , , , , , , , , , , , , , , , , , , , , , , , , , , , ,
-143.274322057516,-91.3900346500761,51.8842874074393,124.041335307085,55.078105119787,77.0854790449189,-21.8623896590884,-242.53373574737,-209.45939577098,117.332178353796,-97.5793047324773,-19.7528736213187, , , , , , , , , , , , , , , , , , , , , , , , , , , , , , , , , , , , , , , , , , , , , , , , , , , , , , , , , , , , ,
-143.274762054776,-92.2795808195708,50.9951812352046,126.96158847074,57.1440731827201,79.0808200457953,-20.919154373635,-241.214952329966,-208.972912160014,117.777171437173,-97.1349716449899,-20.6421997921834, , , , , , , , , , , , , , , , , , , , , , , , , , , , , , , , , , , , , , , , , , , , , , , , , , , , , , , , , , , , ,
-143.699120832102,-92.9929460293381,50.7061748027635,129.789275098436,59.1496913283761,80.9283309295657,-20.0473731069339,-240.283876063228,-208.622047728276,118.34603343072,-97.2026478174325,-21.1433856132875, , , , , , , , , , , , , , , , , , , , , , , , , , , , , , , , , , , , , , , , , , , , , , , , , , , , , , , , , , , , ,
-144.507569167871,-94.9845342597698,49.5230349081006,132.498356000533,61.2965222836317,82.6299980099948,-19.2510989675055,-239.608171796279,-208.394393267586,119.74605171382,-97.0153020379855,-22.7307496758348, , , , , , , , , , , , , , , , , , , , , , , , , , , , , , , , , , , , , , , , , , , , , , , , , , , , , , , , , , , , ,
-145.649288680044,-96.5796287241603,49.0696599558832,135.078812044084,63.4501637781701,84.1967272739972,-18.5234071424182,-238.974335230228,-208.270873272031,121.114458702102,-97.3594743179633,-23.7549843841388, , , , , , , , , , , , , , , , , , , , , , , , , , , , , , , , , , , , , , , , , , , , , , , , , , , , , , , , , , , , ,
-147.065432252965,-98.413259666602,48.6521725863626,137.539447682597,65.6170486126716,85.6491663317323,-17.8456260835106,-238.743799533531,-208.226010300399,122.739345959784,-97.8588024196635,-24.88054354012, , , , , , , , , , , , , , , , , , , , , , , , , , , , , , , , , , , , , , , , , , , , , , , , , , , , , , , , , , , , ,
-148.692202641457,-101.292253560355,47.3999490811024,139.909101624176,67.81425254164,87.0180030729703,-17.1872451075171,-238.549218713753,-208.228529803787,124.992228100906,-98.0460758612796,-26.9461522396263, , , , , , , , , , , , , , , , , , , , , , , , , , , , , , , , , , , , , , , , , , , , , , , , , , , , , , , , , , , , ,
-150.463833441608,-103.561830937087,46.902002504521,142.23604476857,69.9026256967202,88.3436066058807,-16.5065470202478,-238.671565991615,-208.242281422765,127.012832189348,-98.6829179730646,-28.3299142162834, , , , , , , , , , , , , , , , , , , , , , , , , , , , , , , , , , , , , , , , , , , , , , , , , , , , , , , , , , , , ,
-152.315246810334,-106.196692629667,46.1185541806662,144.585563627936,72.0530630350253,89.6749229563278,-15.7520026945241,-238.200019941084,-208.228841294058,129.255969720001,-99.2169004954998,-30.0390692245009, , , , , , , , , , , , , , , , , , , , , , , , , , , , , , , , , , , , , , , , , , , , , , , , , , , , , , , , , , , , ,
-154.184175711096,-108.008960971672,46.175214739424,147.035936502214,74.5414402645592,91.0675995805518,-14.8644429624302,-238.091342116095,-208.227425797229,131.096568341384,-100.17969522526,-30.9168731161243, , , , , , , , , , , , , , , , , , , , , , , , , , , , , , , , , , , , , , , , , , , , , , , , , , , , , , , , , , , , ,
-156.012607276284,-109.718063989855,46.2945432864284,149.673149541404,77.2336482110483,92.5813772500009,-13.7799896379807,-238.056729236151,-208.227425797229,132.865335633069,-101.153575281356,-31.7117603517135, , , , , , , , , , , , , , , , , , , , , , , , , , , , , , , , , , , , , , , , , , , , , , , , , , , , , , , , , , , , ,
-158.571702861725,-110.419924265548,48.1517785961768,152.584753609987,80.1892328412164,94.2768549110519,-12.4336701055629,-237.837753044494,-208.227425797229,134.495813563637,-103.361740728951,-31.134072834686, , , , , , , , , , , , , , , , , , , , , , , , , , , , , , , , , , , , , , , , , , , , , , , , , , , , , , , , , , , , ,
-160.427210310246,-110.626574949796,49.8006353604505,155.853274879417,83.4678313962758,96.2118139843452,-10.7635445376163,-236.688215238404,-208.227425797229,135.526892630021,-105.113922835348,-30.412969794673, , , , , , , , , , , , , , , , , , , , , , , , , , , , , , , , , , , , , , , , , , , , , , , , , , , , , , , , , , , , ,
-161.83659166361,-109.719169300591,52.1174223630182,159.457007903961,86.7807821033746,98.4373833327373,-8.71505365002674,-235.898370808408,-208.227425797229,135.777880482101,-106.977007013314,-28.8008734687868, , , , , , , , , , , , , , , , , , , , , , , , , , , , , , , , , , , , , , , , , , , , , , , , , , , , , , , , , , , , ,
-163.705079356713,-108.067572736104,55.6375066206087,163.486153074712,90.6713995030432,100.99440760159,-6.24519153406835,-236.293381268455,-208.227425797229,135.886326046408,-109.67129298866,-26.2150330577478, , , , , , , , , , , , , , , , , , , , , , , , , , , , , , , , , , , , , , , , , , , , , , , , , , , , , , , , , , , , ,
-164.635952775307,-105.31556777848,59.3203849968267,168.174840323821,95.0675563597238,103.910413378134,-3.32606392152998,-235.894445375043,-208.227425797229,134.975760276894,-111.978168886067,-22.9975913908272, , , , , , , , , , , , , , , , , , , , , , , , , , , , , , , , , , , , , , , , , , , , , , , , , , , , , , , , , , , , ,
-165.518036897144,-101.750702454008,63.7673344431363,173.37886956547,99.4975397470415,107.197530386194,0.0525771200868412,-235.066499690558,-208.227425797229,133.634369675576,-114.64268567014,-18.9916840054358, , , , , , , , , , , , , , , , , , , , , , , , , , , , , , , , , , , , , , , , , , , , , , , , , , , , , , , , , , , , ,
-165.852536437236,-97.2411823594809,68.611354077755,179.074316768189,104.832478529591,110.851619842823,3.88212638335834,-234.30518671924,-208.227425797229,131.546859398359,-117.231945257495,-14.3149141408632, , , , , , , , , , , , , , , , , , , , , , , , , , , , , , , , , , , , , , , , , , , , , , , , , , , , , , , , , , , , ,
-166.764082639144,-92.029295912517,74.7347867266266,185.210002113309,110.414849337574,114.85270339076,8.13538231779687,-232.807100251636,-208.227425797229,129.396689275831,-120.749434682885,-8.64725459294544, , , , , , , , , , , , , , , , , , , , , , , , , , , , , , , , , , , , , , , , , , , , , , , , , , , , , , , , , , , , ,
-166.836221148459,-86.1604340373012,80.675787111158,191.710371924541,116.040306661984,119.166602092696,12.7681989700369,-231.248964605885,-208.227425797229,126.498327592881,-123.756004129809,-2.74232346307184, , , , , , , , , , , , , , , , , , , , , , , , , , , , , , , , , , , , , , , , , , , , , , , , , , , , , , , , , , , , ,
-166.845741989321,-81.2668052539159,85.5789367354045,198.480350696901,122.480839320898,123.74752708888,17.7222712693002,-229.611385886848,-206.799704250503,124.056273621618,-126.212339362362,2.15606574074406, , , , , , , , , , , , , , , , , , , , , , , , , , , , , , , , , , , , , , , , , , , , , , , , , , , , , , , , , , , , ,
-165.97595106062,-79.0760437901106,86.8999072705095,205.411701167781,129.204193406688,128.541251507596,22.9286573626879,-227.079336276188,-203.946412223599,122.525997425366,-126.437929165565,3.91193174019924, , , , , , , , , , , , , , , , , , , , , , , , , , , , , , , , , , , , , , , , , , , , , , , , , , , , , , , , , , , , ,
-164.552813979109,-72.5201289370841,92.0326850420246,212.390279627694,135.464217698318,133.670030323007,28.3115989231098,-224.727025997228,-200.909919570257,118.536471458097,-128.292749510567,9.75627805247001, , , , , , , , , , , , , , , , , , , , , , , , , , , , , , , , , , , , , , , , , , , , , , , , , , , , , , , , , , , , ,
-162.820930581476,-66.1338475571281,96.6870830243473,219.303501327935,141.824656916446,138.807938216144,33.7922542415126,-221.645225351917,-197.851933468235,114.477389069302,-129.754006802911,15.2766177336094, , , , , , , , , , , , , , , , , , , , , , , , , , , , , , , , , , , , , , , , , , , , , , , , , , , , , , , , , , , , ,
-160.715155457533,-60.1063953314531,100.60876012608,226.047341400029,148.37035945677,144.050752815931,39.2920775233801,-218.35359971192,-194.719286510836,110.410775394493,-130.661957791806,20.251182397313, , , , , , , , , , , , , , , , , , , , , , , , , , , , , , , , , , , , , , , , , , , , , , , , , , , , , , , , , , , , ,
-159.80170957694,-54.6205358491618,105.181173727778,232.532268502619,155.351832477147,149.427513936592,44.7357030899168,-215.244143973922,-191.5583662979,107.211122713051,-132.491441652359,25.2803189393081, , , , , , , , , , , , , , , , , , , , , , , , , , , , , , , , , , , , , , , , , , , , , , , , , , , , , , , , , , , , ,
-158.954802923755,-49.6218812477935,109.332921675961,238.687603348582,161.242038371721,154.761667245325,50.134853019969,-211.694152173218,-188.650688191408,104.288342085774,-134.143862299858,29.8555202140836, , , , , , , , , , , , , , , , , , , , , , , , , , , , , , , , , , , , , , , , , , , , , , , , , , , , , , , , , , , , ,
-156.041106511852,-45.6259982683912,110.415108243461,244.463893113782,165.984230882862,159.984686979361,55.3916145931195,-208.50918261321,-185.448698668613,100.833552390122,-133.228107377656,32.3945549875346, , , , , , , , , , , , , , , , , , , , , , , , , , , , , , , , , , , , , , , , , , , , , , , , , , , , , , , , , , , , ,
-152.945230418368,-41.8828936490061,111.062336769361,249.833012406803,170.992803398469,165.039293572903,60.548151830178,-204.939685475741,-182.664092945998,97.414062033687,-132.003783593864,34.5897215601775, , , , , , , , , , , , , , , , , , , , , , , , , , , , , , , , , , , , , , , , , , , , , , , , , , , , , , , , , , , , ,
-149.717829041815,-38.9095951503389,110.808233891476,254.785872515937,175.907036517588,169.570352420239,65.3686746138251,-201.851613082384,-179.900449868374,94.3137120960773,-130.263031466646,35.9493193705685, , , , , , , , , , , , , , , , , , , , , , , , , , , , , , , , , , , , , , , , , , , , , , , , , , , , , , , , , , , , ,
-146.408955110593,-37.1809755739816,109.227979536612,259.327850710213,180.535596003876,173.808524553008,69.6813877525069,-198.704426454516,-177.4489392965,91.7949653422877,-127.818467323602,36.0235019813147, , , , , , , , , , , , , , , , , , , , , , , , , , , , , , , , , , , , , , , , , , , , , , , , , , , , , , , , , , , , ,
-143.063816315702,-35.3476864836127,107.716129832089,263.472309045841,184.212930157725,177.785210313139,73.6244933009079,-195.651782838183,-175.217132869707,89.2057513996574,-125.389973073895,36.1842216742378, , , , , , , , , , , , , , , , , , , , , , , , , , , , , , , , , , , , , , , , , , , , , , , , , , , , , , , , , , , , ,
-139.718270790529,-35.2540757325271,104.464195058002,267.232804652194,187.588751402468,181.474857135247,77.4379243951522,-192.730751199066,-173.556026950928,87.4861732615282,-122.091232924265,34.605059662737, , , , , , , , , , , , , , , , , , , , , , , , , , , , , , , , , , , , , , , , , , , , , , , , , , , , , , , , , , , , ,
-136.394544883788,-34.9323068313549,101.462238052433,270.614762053334,191.104818863592,184.8522954796,80.958993032382,-190.080529953384,-171.829733869748,85.6634258575716,-118.92839146811,33.2649656105387, , , , , , , , , , , , , , , , , , , , , , , , , , , , , , , , , , , , , , , , , , , , , , , , , , , , , , , , , , , , ,
-133.097708362583,-35.3453767337708,97.752331628812,273.607473981654,193.905196101483,187.891282034763,83.8958092088206,-187.723454571946,-170.39392239063,84.221542548177,-115.425019995697,31.2034774475204, , , , , , , , , , , , , , , , , , , , , , , , , , , , , , , , , , , , , , , , , , , , , , , , , , , , , , , , , , , , ,
-129.813436977175,-36.2658016382868,93.547635338888,276.418126890793,196.117544639515,190.563460660254,86.338106859857,-185.835888900687,-169.439081031434,83.0396193077311,-111.680536158031,28.6409168503004, , , , , , , , , , , , , , , , , , , , , , , , , , , , , , , , , , , , , , , , , , , , , , , , , , , , , , , , , , , , ,
-126.507505471706,-36.3361983292964,90.1713071424091,278.503859732561,198.330823046098,192.837960558325,88.7897387652361,-184.081231785071,-168.065609398439,81.4218519005012,-108.339406307057,26.9175544065561, , , , , , , , , , , , , , , , , , , , , , , , , , , , , , , , , , , , , , , , , , , , , , , , , , , , , , , , , , , , ,
-123.640309883609,-37.4384820970329,86.2018277865758,280.014608600357,199.614431605201,194.681764487031,90.6233517275167,-182.629016575573,-166.809820188839,80.539395990321,-104.921068835092,24.3816728447712, , , , , , , , , , , , , , , , , , , , , , , , , , , , , , , , , , , , , , , , , , , , , , , , , , , , , , , , , , , , ,
-120.448289486138,-36.9393742214718,83.5089152646664,280.831089187683,200.39075631964,196.060858319517,92.0831393614917,-181.405346405635,-165.605822721712,78.6938318538052,-101.978602375402,23.2847705215971, , , , , , , , , , , , , , , , , , , , , , , , , , , , , , , , , , , , , , , , , , , , , , , , , , , , , , , , , , , , ,
-116.834497859576,-35.7709930673293,81.0635047922464,280.810118842836,200.693815229552,196.942039911078,93.1545717091581,-180.612742875378,-164.380489620157,76.3027454634528,-98.949001325911,22.6462558624583, , , , , , , , , , , , , , , , , , , , , , , , , , , , , , , , , , , , , , , , , , , , , , , , , , , , , , , , , , , , ,
-112.794700284836,-34.032681977639,78.7620183071967,279.792241400774,199.954443739702,197.295146216162,93.6790798349779,-179.75010529419,-163.057555772102,73.4136911312375,-95.7783592960161,22.3646681647786, , , , , , , , , , , , , , , , , , , , , , , , , , , , , , , , , , , , , , , , , , , , , , , , , , , , , , , , , , , , ,
-109.872528508009,-31.6239225183188,78.2486059896904,277.611918264541,198.448659315046,197.095384781768,94.1054843025733,-179.040181501724,-161.562178634624,70.7482255131642,-94.0605672488498,23.3123417356856, , , , , , , , , , , , , , , , , , , , , , , , , , , , , , , , , , , , , , , , , , , , , , , , , , , , , , , , , , , , ,
-105.306805443331,-28.4770166890601,76.8297887542707,274.109482940668,196.118179185748,196.325457655357,94.3652159178442,-178.306362329541,-159.825678603769,66.8919110661957,-91.0682970988007,24.1763860326051, , , , , , , , , , , , , , , , , , , , , , , , , , , , , , , , , , , , , , , , , , , , , , , , , , , , , , , , , , , , ,
-100.28907832403,-24.5617344539003,75.7273438701294,269.051292239732,192.919405612064,193.288500568098,94.2066843706004,-177.651824238198,-157.790134047123,62.4254063889652,-88.0082110970795,25.5828047081143, , , , , , , , , , , , , , , , , , , , , , , , , , , , , , , , , , , , , , , , , , , , , , , , , , , , , , , , , , , , ,
-94.4676123484413,-19.888217762769,74.5793945856721,262.364539332724,189.017349286149,191.084172829106,93.3459794920863,-176.808504242207,-155.412474808406,57.1779150556053,-84.5235034670565,27.3455884114513, , , , , , , , , , , , , , , , , , , , , , , , , , , , , , , , , , , , , , , , , , , , , , , , , , , , , , , , , , , , ,
-88.2289701324283,-14.5078767833077,73.7210933491205,254.185760477668,184.182071863279,188.596816598644,92.4941383795339,-175.843800894548,-152.667727371113,51.3684234578682,-80.9750317407742,29.6066082829062, , , , , , , , , , , , , , , , , , , , , , , , , , , , , , , , , , , , , , , , , , , , , , , , , , , , , , , , , , , , ,
-82.4811435929835,-8.28551641695663,74.1956271760268,244.168603244457,178.303425898755,185.570456055337,90.8378052282105,-175.002532944604,-149.551134457488,45.3833300049703,-78.338385384505,32.9550553795348, , , , , , , , , , , , , , , , , , , , , , , , , , , , , , , , , , , , , , , , , , , , , , , , , , , , , , , , , , , , ,
-75.4061003951955,-0.270167821752011,75.1359325734433,232.041418358764,171.595596087233,182.03982372512,89.6090642581374,-173.687354810946,-146.078991704544,37.8381341084739,-75.2710164843192,37.4328823758454, , , , , , , , , , , , , , , , , , , , , , , , , , , , , , , , , , , , , , , , , , , , , , , , , , , , , , , , , , , , ,
-68.426268781255,6.90423346363127,75.3305022448862,219.069350224442,164.130070945822,178.049803411634,88.0264170229654,-172.476779016122,-142.28818164005,30.7610176588121,-71.8783855130705,41.1173678542585, , , , , , , , , , , , , , , , , , , , , , , , , , , , , , , , , , , , , , , , , , , , , , , , , , , , , , , , , , , , ,
-61.0196002977276,15.098239459601,76.1178397573284,204.722655223182,156.001599400025,173.654694611189,86.0485032337779,-170.809079488492,-138.234508428297,22.9606804190635,-68.5687200275278,45.6080396084645, , , , , , , , , , , , , , , , , , , , , , , , , , , , , , , , , , , , , , , , , , , , , , , , , , , , , , , , , , , , ,
-54.0941661990285,22.9125199916318,77.0066861906602,189.24987025424,147.457365803258,168.917334008376,83.9469811924934,-169.189960784539,-133.990025005489,15.5908231036985,-65.5504261948442,49.9596030911458, , , , , , , , , , , , , , , , , , , , , , , , , , , , , , , , , , , , , , , , , , , , , , , , , , , , , , , , , , , , ,
-47.8123846912884,30.058480806437,77.8708654977253,172.816286738977,138.419043590706,163.908086326762,81.9665105272155,-167.288413998012,-129.639585592794,8.87695194242586,-62.8416250945067,53.9646731520809, , , , , , , , , , , , , , , , , , , , , , , , , , , , , , , , , , , , , , , , , , , , , , , , , , , , , , , , , , , , ,
-42.2077299278756,37.4214781990352,79.6292081269106,155.978088822762,129.01785561228,158.703680626495,79.7417581234624,-165.371190971129,-125.276849723546,2.39312586442041,-60.918469027393,58.5253431629727, , , , , , , , , , , , , , , , , , , , , , , , , , , , , , , , , , , , , , , , , , , , , , , , , , , , , , , , , , , , ,
-36.38332718974,42.9431937153165,79.3265209050564,138.729133398012,119.555474214799,153.385837917116,77.4838236704119,-163.453852525163,-120.999924367092,-3.27993326278808,-57.854924047398,61.1348573101862, , , , , , , , , , , , , , , , , , , , , , , , , , , , , , , , , , , , , , , , , , , , , , , , , , , , , , , , , , , , ,
-30.8854667613139,48.3691762627411,79.2546430240549,121.919451379168,110.157074318169,148.039622373261,75.3743836863747,-161.626946172012,-116.906788744789,-8.74185475071342,-55.0700548926843,63.8119096433978, , , , , , , , , , , , , , , , , , , , , , , , , , , , , , , , , , , , , , , , , , , , , , , , , , , , , , , , , , , , ,
-27.6631766820786,52.2480513377598,79.9112280198382,105.692328075796,100.868501800108,142.751459416692,72.9993966105708,-159.988654088257,-113.090631393233,-12.2924373278404,-53.7872023509583,66.0796396787987, , , , , , , , , , , , , , , , , , , , , , , , , , , , , , , , , , , , , , , , , , , , , , , , , , , , , , , , , , , , ,
-23.8655428101241,54.9547727191145,78.8203155292385,90.1141787499178,91.940044036984,137.606801581818,70.7834330735996,-158.534572237944,-109.635253652375,-15.5446149544951,-51.3429291696811,66.8875441241763, , , , , , , , , , , , , , , , , , , , , , , , , , , , , , , , , , , , , , , , , , , , , , , , , , , , , , , , , , , , ,
-21.0305040497513,56.9137592258928,77.944263275644,75.8942207107315,83.5057686585141,132.687483535118,68.5287516187066,-157.749724148314,-106.61074903002,-17.9416275880706,-49.4873836626975,67.4290112507682, , , , , , , , , , , , , , , , , , , , , , , , , , , , , , , , , , , , , , , , , , , , , , , , , , , , , , , , , , , , ,
-20.0719974459956,57.2943854519942,77.3663828979897,63.0324394256338,75.6787354952111,128.068881267657,66.2663646645901,-156.917871387692,-104.069728207216,-18.6111940029991,-48.7191901719925,67.3303841749917, , , , , , , , , , , , , , , , , , , , , , , , , , , , , , , , , , , , , , , , , , , , , , , , , , , , , , , , , , , , ,
-19.9212469812367,56.5473246515073,76.4685716327439,52.1144908442967,68.5469355319805,123.817061717481,64.0336497681231,-156.354155578874,-102.044393759932,-18.3130388351351,-48.1949093069902,66.5079481421254, , , , , , , , , , , , , , , , , , , , , , , , , , , , , , , , , , , , , , , , , , , , , , , , , , , , , , , , , , , , ,
-20.4681632649552,54.5716470866184,75.0398103515735,43.0721421579661,62.1708089701972,119.98615722535,61.8735303099214,-156.185923101184,-100.544752921269,-17.0517419108314,-47.7539868082642,64.8057287190957, , , , , , , , , , , , , , , , , , , , , , , , , , , , , , , , , , , , , , , , , , , , , , , , , , , , , , , , , , , , ,
-22.2129983334169,51.5233266624675,73.7363249958843,35.9522840606871,56.5825639717613,116.616203327943,59.3532110516302,-156.243197048071,-99.5581835712688,-14.6551641645251,-47.9746616646505,62.6298258291757, , , , , , , , , , , , , , , , , , , , , , , , , , , , , , , , , , , , , , , , , , , , , , , , , , , , , , , , , , , , ,
-24.9906372270005,47.5848061991521,72.5754434261525,30.7574638451273,52.3562251290396,113.731625887248,57.4811240229963,-157.407362375738,-99.050453384758,-11.2970844860756,-48.7830403265763,60.0801248126521, , , , , , , , , , , , , , , , , , , , , , , , , , , , , , , , , , , , , , , , , , , , , , , , , , , , , , , , , , , , ,
-26.9764471716056,43.7362258086198,70.7126729802252,27.4209707834487,49.0235481934296,111.340461650992,55.8256118418333,-158.4802405813,-98.9681673557643,-8.37988931850693,-48.8445600759153,57.2244493944223, , , , , , , , , , , , , , , , , , , , , , , , , , , , , , , , , , , , , , , , , , , , , , , , , , , , , , , , , , , , ,
-29.5715149056044,38.7603809898776,68.3318958954818,25.8138337289147,46.3550997995414,109.434278754812,54.4308067346041,-159.592238938189,-99.2425120646681,-4.59443304213643,-48.951705400543,53.5461384426795, , , , , , , , , , , , , , , , , , , , , , , , , , , , , , , , , , , , , , , , , , , , , , , , , , , , , , , , , , , , ,
-33.730533600937,33.6243485946322,67.3548821955691,25.754932314361,44.7006855392948,107.988678020835,53.3332955410169,-160.681055530469,-99.7940791138592,0.0530925031525697,-50.5427078982529,50.4896153951004, , , , , , , , , , , , , , , , , , , , , , , , , , , , , , , , , , , , , , , , , , , , , , , , , , , , , , , , , , , , ,
-36.7267070273027,28.662171276618,65.3888783039205,27.0233673582962,43.705258079875,106.964234345967,52.5583971552737,-161.747807181879,-100.538474957915,4.03226787534253,-51.0577926656114,47.025524790269, , , , , , , , , , , , , , , , , , , , , , , , , , , , , , , , , , , , , , , , , , , , , , , , , , , , , , , , , , , , ,
-39.6563385959679,23.9521583433377,63.6084969393054,29.3721458062353,43.0981299563632,106.307778698834,52.1166012374301,-162.426677228113,-101.392357944917,7.85209012631525,-51.6324177676365,43.7803276413213, , , , , , , , , , , , , , , , , , , , , , , , , , , , , , , , , , , , , , , , , , , , , , , , , , , , , , , , , , , , ,
-43.7695917024738,19.7402653308939,63.5098570333675,32.5422457014149,42.9899050304841,105.953999042793,52.000567835886,-163.022561633381,-102.279491756649,12.0146631857901,-53.6397243679205,41.6250611821304, , , , , , , , , , , , , , , , , , , , , , , , , , , , , , , , , , , , , , , , , , , , , , , , , , , , , , , , , , , , ,
-46.7373570392691,16.2227522251994,62.9601092644683,36.2762315028869,43.3874998891969,105.827420757259,52.1831169358449,-163.915528402548,-102.974961149573,15.257302407035,-54.8487331518686,39.5914307448336, , , , , , , , , , , , , , , , , , , , , , , , , , , , , , , , , , , , , , , , , , , , , , , , , , , , , , , , , , , , ,
-49.5210363298609,13.2024045530195,62.7234408828803,40.3307571054811,43.6027314662113,105.844885082311,52.6166043386522,-164.619965652529,-103.325399465525,18.1593158884209,-56.1222386063705,37.9629227179497, , , , , , , , , , , , , , , , , , , , , , , , , , , , , , , , , , , , , , , , , , , , , , , , , , , , , , , , , , , , ,
-52.6125782709326,11.2295931509382,63.8421714218706,44.4874625486679,44.0407716885384,105.918651611357,53.2339840739978,-164.811788716239,-103.678967388687,20.6914925599974,-58.2273748464015,37.5358822864042, , , , , , , , , , , , , , , , , , , , , , , , , , , , , , , , , , , , , , , , , , , , , , , , , , , , , , , , , , , , ,
-55.1251176996673,9.08600376378058,64.2111214634478,48.5618875308443,44.7319902595786,105.960188576781,53.9516959703358,-165.197530044025,-103.976766113816,23.0195569679436,-59.6681195815574,36.6485626136139, , , , , , , , , , , , , , , , , , , , , , , , , , , , , , , , , , , , , , , , , , , , , , , , , , , , , , , , , , , , ,
-56.9874787226298,7.86543499679124,64.8529137194209,52.4100848405979,44.7621289383652,105.884583310905,54.6742967166038,-165.894059088653,-103.871152491827,24.5610218629194,-60.9201962210252,36.3591743581058, , , , , , , , , , , , , , , , , , , , , , , , , , , , , , , , , , , , , , , , , , , , , , , , , , , , , , , , , , , , ,
-59.3948063442115,7.50853724096692,66.9033435851783,55.9326604620419,45.107848790799,105.615332338418,55.3005028373429,-165.933252415867,-104.041540287049,25.9431345516225,-63.1490749646948,37.2059404130724, , , , , , , , , , , , , , , , , , , , , , , , , , , , , , , , , , , , , , , , , , , , , , , , , , , , , , , , , , , , ,
-62.0206302924374,6.67670426106201,68.6973345534992,59.0760430186712,44.8971058496334,105.089103273629,55.730086627025,-165.977524845599,-104.211158120528,27.6719630156879,-65.3589824229682,37.6870194072804, , , , , , , , , , , , , , , , , , , , , , , , , , , , , , , , , , , , , , , , , , , , , , , , , , , , , , , , , , , , ,
-64.5025254355244,6.107614753799,70.6101401893233,61.8309161540509,44.7382354364928,104.259951359113,55.8709182817108,-166.498589588454,-104.570660640637,29.1974553408629,-67.5563328124237,38.3588774715609, , , , , , , , , , , , , , , , , , , , , , , , , , , , , , , , , , , , , , , , , , , , , , , , , , , , , , , , , , , , ,
-66.9313718859188,5.55070565164237,72.482077537561,64.2279247006483,44.3182914136432,103.102460158983,55.6454145260696,-167.918046222018,-104.975821981612,30.6903331171384,-69.7067247117397,39.0163915946014, , , , , , , , , , , , , , , , , , , , , , , , , , , , , , , , , , , , , , , , , , , , , , , , , , , , , , , , , , , , ,
-69.4116589123522,4.77241776465394,74.1840766770059,66.3309626519197,43.6715902886018,101.6133655024,54.9957339107746,-170.227686611742,-105.888857830421,32.3196205738493,-71.7978677946789,39.4782472208297, , , , , , , , , , , , , , , , , , , , , , , , , , , , , , , , , , , , , , , , , , , , , , , , , , , , , , , , , , , , ,
-71.9285682304442,3.93979529076137,75.8683635212055,68.2285406527452,42.7334799737701,99.811390806804,53.8872212463735,-172.256674169077,-107.101974855167,33.9943864698416,-73.8984658758247,39.9040794059832, , , , , , , , , , , , , , , , , , , , , , , , , , , , , , , , , , , , , , , , , , , , , , , , , , , , , , , , , , , , ,
-74.466286369607,2.50250296650552,76.9687893361123,70.0238922309859,41.8165421086051,97.7352350702889,52.3098141144489,-176.092588919532,-108.31775996224,35.9818917015509,-75.7175378528595,39.7356461513087, , , , , , , , , , , , , , , , , , , , , , , , , , , , , , , , , , , , , , , , , , , , , , , , , , , , , , , , , , , , ,
-77.6055450198308,0.738694909891137,78.3442399297218,71.8245919956271,40.3610654279495,95.4398793855943,50.2773571654526,-178.799125488271,-110.18312669747,38.43342505497,-77.9748924747762,39.5414674198062, , , , , , , , , , , , , , , , , , , , , , , , , , , , , , , , , , , , , , , , , , , , , , , , , , , , , , , , , , , , ,
-81.5468140230895,-1.69686920502113,79.8499448180682,73.7324995169316,39.482203396034,92.9915796365172,47.8249955793009,-182.353706118145,-112.499093648852,41.6218416140555,-80.6983794205787,39.0765378065233, , , , , , , , , , , , , , , , , , , , , , , , , , , , , , , , , , , , , , , , , , , , , , , , , , , , , , , , , , , , ,
-85.8468916848736,-4.65488110907449,81.1920105757989,75.834787258123,38.7409452410524,90.4620538277228,45.004998991232,-186.535935622905,-115.281698868781,45.2508863969742,-83.5194511303361,38.268564733362, , , , , , , , , , , , , , , , , , , , , , , , , , , , , , , , , , , , , , , , , , , , , , , , , , , , , , , , , , , , ,
-90.7256315758721,-8.02716692384661,82.6984646520254,78.1966697377476,37.8712185031944,87.9224302897135,41.8814772465785,-191.224120762211,-118.624729866423,49.3763992498595,-86.7120481139486,37.3356488640891, , , , , , , , , , , , , , , , , , , , , , , , , , , , , , , , , , , , , , , , , , , , , , , , , , , , , , , , , , , , ,
-96.0624665153899,-11.8224218897374,84.2400446256524,80.8562697987111,37.5544194506275,85.4375074771292,38.524497469999,-196.974600365551,-122.385015190045,53.9424442025638,-90.151255570521,36.2088113679573, , , , , , , , , , , , , , , , , , , , , , , , , , , , , , , , , , , , , , , , , , , , , , , , , , , , , , , , , , , , ,
-102.190781504593,-16.2188743237823,85.9719071808107,83.8218777751775,37.4836131754449,83.0608099300736,35.0041188243291,-202.208396441665,-125.562746941939,59.2048279141879,-94.0813443427018,34.876516428514, , , , , , , , , , , , , , , , , , , , , , , , , , , , , , , , , , , , , , , , , , , , , , , , , , , , , , , , , , , , ,
-108.844778774165,-20.8978235538077,87.9469552203572,87.071689346651,37.3481277135525,80.8308227845698,31.3848381578754,-208.64272177963,-129.85752605189,64.8713011639866,-98.395866997261,33.5245658332745, , , , , , , , , , , , , , , , , , , , , , , , , , , , , , , , , , , , , , , , , , , , , , , , , , , , , , , , , , , , ,
-115.962670516178,-25.6886037810216,90.2740667351558,90.5559436844537,37.708382843887,78.7686603598342,27.720889751958,-214.602874883066,-133.265560033462,70.8256371485997,-103.118368625667,32.2927314770669, , , , , , , , , , , , , , , , , , , , , , , , , , , , , , , , , , , , , , , , , , , , , , , , , , , , , , , , , , , , ,
-123.160267889621,-30.7526865737771,92.4075813158437,94.2012285793761,37.9567422626323,76.8772879162036,24.0527666028697,-219.73983225765,-137.325212535668,76.9564772316992,-107.783924602732,30.8274473710331, , , , , , , , , , , , , , , , , , , , , , , , , , , , , , , , , , , , , , , , , , , , , , , , , , , , , , , , , , , , ,
-130.303091295195,-35.3518572095738,94.9512340856212,97.9165754155898,38.5083096524443,75.142281409855,20.4052279475791,-224.951457437579,-142.377680775946,82.8274742523847,-112.627162690408,29.7996884380235, , , , , , , , , , , , , , , , , , , , , , , , , , , , , , , , , , , , , , , , , , , , , , , , , , , , , , , , , , , , ,
-137.789074910082,-40.3433407669311,97.4457341431511,101.600829661492,38.8343232579495,73.5339828171323,16.78692870791,-230.177353738979,-147.521505110298,89.0662078385069,-117.617404526617,28.5511966881098, , , , , , , , , , , , , , , , , , , , , , , , , , , , , , , , , , , , , , , , , , , , , , , , , , , , , , , , , , , , ,
-145.542387673228,-44.9210019557743,100.621385717453,105.150660082787,39.2112267744782,72.0107947541349,13.1916584364861,-235.367276854251,-152.671694687358,95.2316948145012,-123.08188669534,27.8501918808393, , , , , , , , , , , , , , , , , , , , , , , , , , , , , , , , , , , , , , , , , , , , , , , , , , , , , , , , , , , , ,
-153.187030715744,-49.4794302072357,103.707600508508,108.468490309334,39.0920357150832,70.5232706236183,9.60102329899799,-240.481785854207,-157.654717675212,101.33323046149,-128.447315612125,27.1140851506357, , , , , , , , , , , , , , , , , , , , , , , , , , , , , , , , , , , , , , , , , , , , , , , , , , , , , , , , , , , , ,
-159.622330173563,-53.0865007397895,106.535829433774,111.4696288706,38.9093503056381,69.0186060040589,5.98825965124532,-245.49163609434,-162.486782645016,106.354415456677,-133.079079803668,26.7246643469919, , , , , , , , , , , , , , , , , , , , , , , , , , , , , , , , , , , , , , , , , , , , , , , , , , , , , , , , , , , , ,
-165.677057508734,-56.9543662386438,108.72269127009,114.087953049081,38.32751399962,67.4451247224861,2.3227485489005,-250.376101087468,-167.263975486718,111.315711873689,-137.199874389412,25.8841625157227, , , , , , , , , , , , , , , , , , , , , , , , , , , , , , , , , , , , , , , , , , , , , , , , , , , , , , , , , , , , ,
-172.277433523727,-60.1469035150237,112.130530008703,116.279666525325,36.7634321291856,65.7563813054739,-1.42526860386532,-255.120563243507,-171.515715226027,116.212168519375,-142.203981766215,25.9918132468393, , , , , , , , , , , , , , , , , , , , , , , , , , , , , , , , , , , , , , , , , , , , , , , , , , , , , , , , , , , , ,
-178.522789071147,-63.1813702640923,115.341418807055,118.024879539965,35.2425778964032,63.9145798642936,-5.28026421769938,-259.713792367597,-175.650538423703,120.85207966762,-146.932103939101,26.0800242714809, , , , , , , , , , , , , , , , , , , , , , , , , , , , , , , , , , , , , , , , , , , , , , , , , , , , , , , , , , , , ,
-183.281986362372,-65.4340075953362,117.847978767035,119.327012731717,32.9119127166996,61.8931341219852,-9.25768862842345,-264.145316469172,-179.600884438138,124.357996978854,-150.564982564703,26.2069855858493, , , , , , , , , , , , , , , , , , , , , , , , , , , , , , , , , , , , , , , , , , , , , , , , , , , , , , , , , , , , ,
-186.843611158898,-67.4129135408741,119.430697618024,120.210258819531,30.4263723265375,59.6783279923512,-13.3611902727469,-268.403211383709,-183.317023299424,127.128262349886,-153.137154388461,26.0088920385745, , , , , , , , , , , , , , , , , , , , , , , , , , , , , , , , , , , , , , , , , , , , , , , , , , , , , , , , , , , , ,
-189.711966981716,-69.0320645339364,120.67990244778,120.715521358848,27.3846651687574,57.2701330894568,-17.5809344224123,-272.472541427774,-186.493877400561,129.372015757827,-155.195934714748,25.8239189569215, , , , , , , , , , , , , , , , , , , , , , , , , , , , , , , , , , , , , , , , , , , , , , , , , , , , , , , , , , , , ,
-192.042072326668,-70.1985465547198,121.843525771948,120.895376181643,24.099869091824,54.6822815516523,-21.8930701591595,-276.334596894318,-189.568757168363,131.120309440694,-156.942799049308,25.822489608614, , , , , , , , , , , , , , , , , , , , , , , , , , , , , , , , , , , , , , , , , , , , , , , , , , , , , , , , , , , , ,
-193.684028765916,-71.1288811896268,122.555147576289,120.808666638306,20.090812067595,51.941704111956,-26.2603127509513,-279.966984862035,-192.286676686661,132.406454977772,-158.119588171102,25.7131331933309, , , , , , , , , , , , , , , , , , , , , , , , , , , , , , , , , , , , , , , , , , , , , , , , , , , , , , , , , , , , ,
-194.863600274668,-71.3954508228701,123.468149451798,120.515342885749,15.9733837864614,49.087455123877,-30.6335152789654,-283.344519191683,-194.577321689032,133.129525548769,-159.165874863233,26.0363493144637, , , , , , , , , , , , , , , , , , , , , , , , , , , , , , , , , , , , , , , , , , , , , , , , , , , , , , , , , , , , ,
-195.735434404635,-70.67154011041,125.063894294225,120.072080024371,12.1183498524324,46.1692568989431,-34.954013972436,-286.440736503379,-195.984442934953,133.203487257523,-160.39966434943,27.1961770919073, , , , , , , , , , , , , , , , , , , , , , , , , , , , , , , , , , , , , , , , , , , , , , , , , , , , , , , , , , , , ,
-195.979864684545,-70.4780189000141,125.501845784531,119.529065564133,8.17229125708145,43.245781335546,-39.1564838386714,-289.22978290523,-197.774819932022,133.22894179228,-160.740855234538,27.5119134422583, , , , , , , , , , , , , , , , , , , , , , , , , , , , , , , , , , , , , , , , , , , , , , , , , , , , , , , , , , , , ,
-195.950395401399,-69.8905978078922,126.059797593506,118.956299177397,4.47169364001029,40.3827413872517,-43.1720520744039,-291.688405231353,-199.239540267269,132.920496604646,-161.005096497452,28.0845998928069, , , , , , , , , , , , , , , , , , , , , , , , , , , , , , , , , , , , , , , , , , , , , , , , , , , , , , , , , , , , ,
-195.678769385202,-68.9082992342294,126.770470150972,118.60169772068,0.930819575415647,37.6508096699079,-46.9314688238572,-293.797830785749,-200.39212537072,132.293534309716,-161.224619768087,28.9310854583712, , , , , , , , , , , , , , , , , , , , , , , , , , , , , , , , , , , , , , , , , , , , , , , , , , , , , , , , , , , , ,
-195.022373711671,-67.3229956096541,127.699378102017,118.117834124515,-2.8800129942012,35.1233370102826,-50.3682011345715,-295.545395066257,-201.250741239548,131.172684660663,-161.360875906844,30.1881912461814, , , , , , , , , , , , , , , , , , , , , , , , , , , , , , , , , , , , , , , , , , , , , , , , , , , , , , , , , , , , ,
-194.236459072131,-66.1972960123001,128.039163059831,117.794467941249,-5.53457737959689,32.8738165828341,-53.4213772607723,-296.925843343201,-201.837639549869,130.216877542216,-161.137811065981,30.9209335237652, , , , , , , , , , , , , , , , , , , , , , , , , , , , , , , , , , , , , , , , , , , , , , , , , , , , , , , , , , , , ,
-193.572965613316,-64.6192104208592,128.953755192457,117.197520229011,-7.91046679709556,30.9730344134127,-56.0385482962514,-297.942265189517,-202.178421834826,129.096088017088,-161.263360402886,32.1672723857985, , , , , , , , , , , , , , , , , , , , , , , , , , , , , , , , , , , , , , , , , , , , , , , , , , , , , , , , , , , , ,
-192.645157776994,-61.9963631164835,130.64879466051,116.421065392096,-9.42063015053997,29.4858697536635,-58.1782439798026,-298.606617591557,-202.301187643385,127.320760446739,-161.646976218752,34.3262157720131, , , , , , , , , , , , , , , , , , , , , , , , , , , , , , , , , , , , , , , , , , , , , , , , , , , , , , , , , , , , ,
-192.093007490111,-60.0513840878732,132.041623402238,115.967111672652,-10.2712360748472,28.4677534812779,-59.8122910941891,-298.939779277874,-202.235608641641,126.072195788992,-162.067315446174,35.995119657182, , , , , , , , , , , , , , , , , , , , , , , , , , , , , , , , , , , , , , , , , , , , , , , , , , , , , , , , , , , , ,
-190.829913829791,-58.1761830216735,132.653730808118,115.599911152947,-10.433868887586,27.9608445057578,-60.9278564171322,-298.971094587527,-202.011965853151,124.503048425733,-161.741822318954,37.2387738932219, , , , , , , , , , , , , , , , , , , , , , , , , , , , , , , , , , , , , , , , , , , , , , , , , , , , , , , , , , , , ,
-189.449854416204,-55.0662562935079,134.383598122696,115.202581980304,-9.90726446729681,27.9900349358154,-61.5291753017319,-298.737421947747,-201.660204984619,122.258055354856,-161.91672626945,39.6586709145939, , , , , , , , , , , , , , , , , , , , , , , , , , , , , , , , , , , , , , , , , , , , , , , , , , , , , , , , , , , , ,
-189.857518283824,-52.7626121107253,137.094906173098,115.08612900101,-8.72080523946251,28.5589506266339,-61.6389158269825,-298.281774861959,-201.209087625356,121.310065197275,-163.476212228461,42.1661470311863, , , , , , , , , , , , , , , , , , , , , , , , , , , , , , , , , , , , , , , , , , , , , , , , , , , , , , , , , , , , ,
-189.10077712687,-50.3154578297206,138.785319297149,114.867793508403,-6.93743421614453,29.6461854628119,-61.299095101775,-297.651694188693,-200.685519916268,119.708117478295,-163.943048212009,44.2349307337141, , , , , , , , , , , , , , , , , , , , , , , , , , , , , , , , , , , , , , , , , , , , , , , , , , , , , , , , , , , , ,
-188.447890630984,-47.8189295577129,140.628961073271,115.117386874728,-4.65562602641534,31.2020960300784,-60.5714180950771,-296.897499270886,-200.114116853615,118.133410094349,-164.538425852127,46.4050157577788, , , , , , , , , , , , , , , , , , , , , , , , , , , , , , , , , , , , , , , , , , , , , , , , , , , , , , , , , , , , ,
-188.721012548024,-45.1697605281313,143.551252019893,115.584852841145,-2.0099660336075,33.1465735369053,-59.5368722897011,-296.070538594429,-199.51701933067,116.945386538078,-166.136132283958,49.1907457458804, , , , , , , , , , , , , , , , , , , , , , , , , , , , , , , , , , , , , , , , , , , , , , , , , , , , , , , , , , , , ,
-191.573316300274,-42.9193322403496,148.653984059924,116.251531195611,0.830164266842424,35.3682735002776,-58.2944013528717,-295.221518527397,-198.913938861211,117.246324270312,-170.113650180099,52.8673259097869, , , , , , , , , , , , , , , , , , , , , , , , , , , , , , , , , , , , , , , , , , , , , , , , , , , , , , , , , , , , ,
-190.831825602179,-40.6880490748611,150.143776527318,117.167126400091,3.66428157861611,37.7257865212371,-56.9585053515147,-294.398949217708,-198.322376340112,115.75993733852,-170.487801064748,54.7278637262282, , , , , , , , , , , , , , , , , , , , , , , , , , , , , , , , , , , , , , , , , , , , , , , , , , , , , , , , , , , , ,
-190.202359154576,-38.5644134388665,151.637945715709,118.277549975458,6.267254742776,40.0511573907896,-55.655668393802,-293.647717010366,-197.757951228943,114.383386296721,-170.920152435143,56.5367661384212, , , , , , , , , , , , , , , , , , , , , , , , , , , , , , , , , , , , , , , , , , , , , , , , , , , , , , , , , , , , ,
-189.831291839194,-36.5264314619528,153.304860377241,119.535808488483,8.39871535113451,42.1560190133527,-54.5195800246314,-293.007773355955,-197.234779149815,113.178861650573,-171.568076108217,58.3892144576437, , , , , , , , , , , , , , , , , , , , , , , , , , , , , , , , , , , , , , , , , , , , , , , , , , , , , , , , , , , , ,
-189.756444259429,-34.7915559915552,154.964888267873,120.874207352564,9.81540224372074,43.8404320203126,-53.6851807721545,-292.512923338111,-196.765838850185,112.274000125492,-172.360666263651,60.0866661381588, , , , , , , , , , , , , , , , , , , , , , , , , , , , , , , , , , , , , , , , , , , , , , , , , , , , , , , , , , , , ,
-190.01031745384,-33.4270510547478,156.583266399092,122.20675940547,10.2861919485443,44.9043279056438,-53.2816275926732,-292.189703307737,-196.363269034345,111.718684254294,-173.296791926466,61.5781076721717, , , , , , , , , , , , , , , , , , , , , , , , , , , , , , , , , , , , , , , , , , , , , , , , , , , , , , , , , , , , ,
-190.617360725644,-32.5216653016648,158.095695423979,123.43356562137,9.6093450339276,45.1612456562158,-53.424350531575,-292.056347204437,-196.038531153457,111.569513013655,-174.356528074811,62.7870150611569, , , , , , , , , , , , , , , , , , , , , , , , , , , , , , , , , , , , , , , , , , , , , , , , , , , , , , , , , , , , ,
-191.591304041173,-31.5211989068405,160.070105134333,124.44693537696,7.63127699567129,44.4538333335732,-54.2064570012832,-292.121841483621,-195.802368548217,111.556251474007,-175.830704587753,64.2744531137458, , , , , , , , , , , , , , , , , , , , , , , , , , , , , , , , , , , , , , , , , , , , , , , , , , , , , , , , , , , , ,
-192.932641299668,-31.4305849554287,161.502056344239,125.138905712391,4.26594394172724,42.6703709322917,-55.6898275597858,-292.385058418438,-195.664494191017,112.181613127548,-177.217348821953,65.0357356944049, , , , , , , , , , , , , , , , , , , , , , , , , , , , , , , , , , , , , , , , , , , , , , , , , , , , , , , , , , , , ,
-194.626316689757,-31.7698428106758,162.856473879081,125.409737161904,-0.486272207740562,39.7613774632842,-57.8963365842586,-292.833953787152,-196.176325887575,113.198079750216,-178.741395284419,65.5433155342024, , , , , , , , , , , , , , , , , , , , , , , , , , , , , , , , , , , , , , , , , , , , , , , , , , , , , , , , , , , , ,
-196.663242126719,-32.7535410714893,163.909701055229,125.176907842264,-6.52147271944614,35.7552081215944,-60.7997271133027,-293.44483923895,-196.430727246211,114.708391599104,-180.286471590974,65.5780799918699, , , , , , , , , , , , , , , , , , , , , , , , , , , , , , , , , , , , , , , , , , , , , , , , , , , , , , , , , , , , ,
-200.723013006567,-34.1966750032136,166.526338003353,124.384090224029,-13.61837309806,30.7714366634332,-64.3187636785659,-294.181800172263,-196.796361739599,117.459844004891,-183.62467550496,66.1648315000696, , , , , , , , , , , , , , , , , , , , , , , , , , , , , , , , , , , , , , , , , , , , , , , , , , , , , , , , , , , , ,
-203.343432517734,-36.0508396857074,167.292592832026,123.009567946368,-21.4291536352169,25.0307644159131,-68.312353543619,-294.996411007402,-197.181930474461,119.697136101721,-185.31801267488,65.6208765731593, , , , , , , , , , , , , , , , , , , , , , , , , , , , , , , , , , , , , , , , , , , , , , , , , , , , , , , , , , , , ,
-207.307713167584,-38.2464225687879,169.061290598796,121.073537542985,-29.4765097750319,18.860213351746,-72.5773358398547,-295.827967975621,-197.643582849407,122.777067868186,-188.18450188319,65.4074340150037, , , , , , , , , , , , , , , , , , , , , , , , , , , , , , , , , , , , , , , , , , , , , , , , , , , , , , , , , , , , ,
-209.995284817833,-40.6955321488692,169.299752668964,118.643756962669,-37.1582587975365,12.6924577875803,-76.8495783803181,-296.604484597188,-198.412227074621,125.345408483352,-189.647518743399,64.3021102600472, , , , , , , , , , , , , , , , , , , , , , , , , , , , , , , , , , , , , , , , , , , , , , , , , , , , , , , , , , , , ,
-212.643699271693,-43.2966434965322,169.347055775161,115.839053808102,-43.7606147384974,7.05833748710361,-80.8089000896143,-297.244663705697,-199.017130848312,127.970171384113,-190.995377523427,63.025206139314, , , , , , , , , , , , , , , , , , , , , , , , , , , , , , , , , , , , , , , , , , , , , , , , , , , , , , , , , , , , ,
-215.819870284397,-45.940726766112,169.879143518285,112.83028053457,-48.4808690127654,2.57188562736215,-84.088157363499,-297.660973115482,-199.721630533929,130.880298525255,-192.849506901341,61.9692083760863, , , , , , , , , , , , , , , , , , , , , , , , , , , , , , , , , , , , , , , , , , , , , , , , , , , , , , , , , , , , ,
-217.774146752101,-48.5183740084415,169.255772743659,109.838396242047,-50.4597063586427,-0.0923948628984874,-86.2865907746765,-297.763821270403,-200.526790442866,133.146260380271,-193.51495974788,60.3686993676086, , , , , , , , , , , , , , , , , , , , , , , , , , , , , , , , , , , , , , , , , , , , , , , , , , , , , , , , , , , , ,
-219.090532724861,-50.927244400986,168.163288323875,107.12947395354,-48.8227532478141,-0.229774437766849,-86.9872287890787,-297.466679454122,-201.446214841915,135.008888562924,-193.626910524368,58.6180219614442, , , , , , , , , , , , , , , , , , , , , , , , , , , , , , , , , , , , , , , , , , , , , , , , , , , , , , , , , , , , ,
-219.933117491203,-53.0790586741289,166.854058817074,105.006583584954,-42.7302249627408,2.85773993996762,-85.7778108197645,-296.691856887447,-202.013830232987,136.506088082666,-193.393588154138,56.8875000714723, , , , , , , , , , , , , , , , , , , , , , , , , , , , , , , , , , , , , , , , , , , , , , , , , , , , , , , , , , , , ,
-223.588747118945,-54.9054017942551,168.68334532469,103.798672027194,-31.4327559676603,9.81911723829407,-82.2743551544014,-295.376519645224,-202.640738518541,139.2470744566,-196.136046221817,56.8889717652172, , , , , , , , , , , , , , , , , , , , , , , , , , , , , , , , , , , , , , , , , , , , , , , , , , , , , , , , , , , , ,
-224.725552142899,-56.3617168243811,168.363835318517,103.846732603436,-14.3307399340026,21.2086614682864,-76.1461922011748,-293.478460695932,-203.170915371032,140.54363448364,-196.544693730708,56.0010592470679, , , , , , , , , , , , , , , , , , , , , , , , , , , , , , , , , , , , , , , , , , , , , , , , , , , , , , , , , , , , ,
-224.660509320785,-57.2819508727637,167.378558448021,105.487715370306,8.96614307960299,37.4394850486567,-67.8520047630679,-290.98108675831,-203.529079980485,140.971230096774,-196.019533884403,55.0483037876284, , , , , , , , , , , , , , , , , , , , , , , , , , , , , , , , , , , , , , , , , , , , , , , , , , , , , , , , , , , , ,
-225.288200796067,-57.966278924637,167.32192187143,109.036774162001,38.5830038558347,58.7389273132623,-55.8195320797049,-287.8970947957,-203.831766911394,141.627239860352,-196.305061333749,54.6778214733964, , , , , , , , , , , , , , , , , , , , , , , , , , , , , , , , , , , , , , , , , , , , , , , , , , , , , , , , , , , , ,
-224.770725616088,-58.2952993064766,166.475426309611,114.768564312628,74.3314580201063,85.1089410991602,-40.7317227989752,-284.270361327437,-204.110136921255,141.533012461282,-195.623075962849,54.0900635015669, , , , , , , , , , , , , , , , , , , , , , , , , , , , , , , , , , , , , , , , , , , , , , , , , , , , , , , , , , , , ,
-221.404403897629,-58.3130731366675,163.091330760961,122.898374751544,115.672979116816,116.294465793798,-22.6984987638747,-280.175648986155,-205.215861129682,139.858738517148,-192.247867329295,52.3891288121466, , , , , , , , , , , , , , , , , , , , , , , , , , , , , , , , , , , , , , , , , , , , , , , , , , , , , , , , , , , , ,
-219.340993420075,-58.0728347160505,161.268158704024,133.563887705517,161.697552389136,151.762587300119,-1.97707238464094,-275.715835025925,-206.762456283566,138.706914068063,-190.304576062049,51.5976619939866, , , , , , , , , , , , , , , , , , , , , , , , , , , , , , , , , , , , , , , , , , , , , , , , , , , , , , , , , , , , ,
-217.052091348545,-57.6286177168283,159.423473631717,146.808322760677,211.12061847462,190.694846402134,21.02619780876,-271.01648075494,-207.170593844409,137.340354532687,-188.237782490131,50.8974279574439, , , , , , , , , , , , , , , , , , , , , , , , , , , , , , , , , , , , , , , , , , , , , , , , , , , , , , , , , , , , ,
-214.641595728738,-57.0263726735468,157.615223055191,162.56567069651,262.300295084806,231.994392615019,45.762350830277,-266.217696930258,-207.60483821556,135.833984201142,-186.128409391964,50.2944251908216, , , , , , , , , , , , , , , , , , , , , , , , , , , , , , , , , , , , , , , , , , , , , , , , , , , , , , , , , , , , ,
-212.465678721577,-56.2952416377295,156.170437083847,180.648672769747,313.275549884348,274.308783784087,70.2760591146498,-261.463431818757,-208.668360964997,134.380460179653,-184.318057902712,49.9375977230587, , , , , , , , , , , , , , , , , , , , , , , , , , , , , , , , , , , , , , , , , , , , , , , , , , , , , , , , , , , , ,
-209.381594267782,-55.4395569329856,153.942037334796,200.740134305333,361.824402572651,316.068110586663,95.3812327436526,-256.888521017489,-209.057802451208,132.410575600384,-181.661815801289,49.251240200905, , , , , , , , , , , , , , , , , , , , , , , , , , , , , , , , , , , , , , , , , , , , , , , , , , , , , , , , , , , , ,
-208.514925441398,-54.4319992386042,154.082926202794,222.388049423712,405.539463456759,355.536847086039,120.877664644849,-252.604083703072,-209.482587734669,131.473462340002,-181.298925822096,49.8254634820947, , , , , , , , , , , , , , , , , , , , , , , , , , , , , , , , , , , , , , , , , , , , , , , , , , , , , , , , , , , , ,
-208.88808860507,-53.2082463046456,155.679842300425,245.00486612576,441.916406431064,390.876554912554,142.961545176963,-248.682109976367,-210.013827489137,131.048167454858,-182.283965452747,51.2357979978893, , , , , , , , , , , , , , , , , , , , , , , , , , , , , , , , , , , , , , , , , , , , , , , , , , , , , , , , , , , , ,
-209.154219907055,-51.6634065919336,157.490813315121,267.871088919663,468.449677802588,420.215535727111,162.763437888871,-245.140322583873,-210.468791017776,130.408813249494,-183.322516611088,52.9137033615935, , , , , , , , , , , , , , , , , , , , , , , , , , , , , , , , , , , , , , , , , , , , , , , , , , , , , , , , , , , , ,
-210.395822101297,-49.7976605145379,160.598161586758,290.143342193455,482.729186821889,441.720957665293,181.303515807101,-241.928561781248,-210.721227202389,130.096741307917,-185.496991844027,55.40025053611, , , , , , , , , , , , , , , , , , , , , , , , , , , , , , , , , , , , , , , , , , , , , , , , , , , , , , , , , , , , ,
-213.037497075998,-47.2878292103758,165.749667865622,310.866989406382,482.532017013085,453.66896566494,195.784413072803,-238.917991554693,-210.834650299235,130.162663143187,-189.39358247081,59.2309193276231, , , , , , , , , , , , , , , , , , , , , , , , , , , , , , , , , , , , , , , , , , , , , , , , , , , , , , , , , , , , ,
-217.056815561219,-43.837237725432,173.219577835787,328.99335682153,465.90413171775,454.508716387178,205.9117602883,-235.894350786482,-209.998318117606,130.447026643326,-195.138196698503,64.6911700551771, , , , , , , , , , , , , , , , , , , , , , , , , , , , , , , , , , , , , , , , , , , , , , , , , , , , , , , , , , , , ,
-222.345018965362,-39.6864125622685,182.658606403093,343.401471035513,431.22822639403,442.91692961589,211.065798970681,-232.556294336667,-208.315698385633,131.015715763815,-202.501812684228,71.4860969204122, , , , , , , , , , , , , , , , , , , , , , , , , , , , , , , , , , , , , , , , , , , , , , , , , , , , , , , , , , , , ,
-228.702606575231,-33.5875356456424,195.115070929588,352.92395098261,377.274983821848,417.840234302687,209.637058400552,-228.519609719652,-205.770558213987,131.145071110437,-211.90883875241,80.7637676419727, , , , , , , , , , , , , , , , , , , , , , , , , , , , , , , , , , , , , , , , , , , , , , , , , , , , , , , , , , , , ,
-235.838784872052,-25.8570409542824,209.981743917769,356.376335548843,303.235943383401,378.523270301218,204.148548801494,-223.327770772395,-201.648779375267,130.847912913167,-222.910264394911,92.0623514817433, , , , , , , , , , , , , , , , , , , , , , , , , , , , , , , , , , , , , , , , , , , , , , , , , , , , , , , , , , , , ,
-243.375171161568,-16.1835447318451,227.191626429722,352.588782903461,208.737128485395,324.521276448644,193.338245626893,-216.468905635468,-195.819467694018,129.779357946707,-235.283398795645,105.504040848938, , , , , , , , , , , , , , , , , , , , , , , , , , , , , , , , , , , , , , , , , , , , , , , , , , , , , , , , , , , , ,
-250.854027054091,-4.30331465337963,246.550712400712,340.4388580943,93.8336210306151,255.594774603866,177.416442247941,-207.39880679749,-187.800889142512,127.578670853736,-248.702369727401,121.123698873666, , , , , , , , , , , , , , , , , , , , , , , , , , , , , , , , , , , , , , , , , , , , , , , , , , , , , , , , , , , , ,
-257.751111495226,10.1599171018008,267.911028597026,318.884069558377,-41.0136008131828,170.908256564715,156.718594490955,-195.569099504293,-177.572587337756,123.795597196713,-262.831070046126,139.035472849413, , , , , , , , , , , , , , , , , , , , , , , , , , , , , , , , , , , , , , , , , , , , , , , , , , , , , , , , , , , , ,
-263.492992105668,27.2940974639489,290.787089569616,286.992864399789,-194.976242225546,73.1519172931321,131.667699911941,-180.459151291906,-164.163861549423,118.09944732086,-277.140040837642,159.040593516782, , , , , , , , , , , , , , , , , , , , , , , , , , , , , , , , , , , , , , , , , , , , , , , , , , , , , , , , , , , , ,
-267.478360595324,47.2387069121366,314.717067507461,243.97285228439,-366.909709364977,-39.5216476331345,102.730233269682,-161.609820250143,-147.650849008442,110.119826841594,-291.097714051392,180.977887209798, , , , , , , , , , , , , , , , , , , , , , , , , , , , , , , , , , , , , , , , , , , , , , , , , , , , , , , , , , , , ,
-269.10257084375,69.3144079271353,338.416978770886,189.195051723689,-555.413310675838,-163.979571810711,70.3688674029766,-138.656769727681,-127.8555180546,99.8940814583077,-303.759774807318,203.86569334901, , , , , , , , , , , , , , , , , , , , , , , , , , , , , , , , , , , , , , , , , , , , , , , , , , , , , , , , , , , , ,
-267.784254236062,94.5235838056008,362.307838041662,122.212952207977,-758.896361199781,-300.149947193422,34.9954779260499,-111.360861223913,-104.242038532277,86.6303352152306,-315.046046138862,228.415710923631, , , , , , , , , , , , , , , , , , , , , , , , , , , , , , , , , , , , , , , , , , , , , , , , , , , , , , , , , , , , ,
-262.992497703885,122.415152825951,385.407650529835,42.7751908026265,-975.646985371721,-448.774541684926,-3.07198153606087,-79.6330890627259,-76.838664022317,70.2886724389673,-324.20007411686,253.911401677893, , , , , , , , , , , , , , , , , , , , , , , , , , , , , , , , , , , , , , , , , , , , , , , , , , , , , , , , , , , , ,
-254.272787650144,151.833549540119,406.106337190262,-49.1692967896735,-1203.90054761436,-605.898081380384,-43.6452245297999,-43.5516512203991,-45.818265902855,51.2196190550128,-330.189562420203,278.96994336519, , , , , , , , , , , , , , , , , , , , , , , , , , , , , , , , , , , , , , , , , , , , , , , , , , , , , , , , , , , , ,
