-8.4635275417121,-14.3555479845852,-5.89202044287318,12.0456471137122,6.234536447025,6.22468288295351,-0.97378461863762,-72.8445787552987,-68.7927053966794,11.4095377631487,-1.28575354941946,-10.1237842137292,862,834,906,769,906,906,795,906,686,834,906,686,1118,1039,900,1054,1042,1055,1050,1069,1097,814,1204,717,1267,1190,1125,1166,1138,1182,1192,1198,1195,1174,1305,1063,1542,1466,1445,1575,1473,1554,1501,1463,1465,1498,1610,1455,1254,1299,1297,1234,1297,1297,1257,1297,1150,1299,1297,1150,
-8.4635275417121,-14.3555479845852,-5.89202044287318,12.0456471137122,6.234536447025,6.22468288295351,-0.97378461863762,-72.8445787552987,-68.7927053966794,11.4095377631487,-1.28575354941946,-10.1237842137292,1872,1901,1895,1792,1895,1895,1802,1895,1728,1901,1895,1728,1163,1080,921,1103,1082,1081,1081,1081,1123,893,1228,1009,1302,1235,1131,1257,1238,1243,1200,1233,1234,1259,1370,1080,1627,1568,1575,1657,1554,1628,1563,1545,1548,1582,1670,1572,2261,2304,2302,2241,2302,2302,2266,2302,2226,2304,2302,2226,
-8.4635275417121,-14.3555479845852,-5.89202044287318,12.0456471137122,6.234536447025,6.22468288295351,-0.97378461863762,-72.8445787552987,-68.7927053966794,11.4095377631487,-1.28575354941946,-10.1237842137292,2816,2860,2858,2836,2858,2858,2824,2858,2933,2860,2858,2933,1185,1126,1095,1153,1125,1133,1121,1115,1149,1118,1261,2059,1326,1256,1255,1282,1263,1268,1253,1256,1259,1282,1429,1237,1693,1637,1642,1705,1637,1668,1633,1607,1606,1662,1691,1639,3292,3337,3334,3350,3334,3334,3302,3334,3311,3337,3334,3311,
-8.4635275417121,-14.3555479845852,-5.89202044287318,12.0456471137122,6.234536447025,6.22468288295351,-0.97378461863762,-72.8445787552987,-68.7927053966794,11.4095377631487,-1.28575354941946,-10.1237842137292,3840,3885,3956,3929,3956,3956,3846,3956,3832,3885,3956,3832,1217,1150,2032,2063,2057,2066,2060,2020,2043,1987,2109,2086,1384,1309,1275,1327,1298,1296,1274,1279,1308,1338,1466,1270,2479,2473,2414,2484,2476,2470,2511,2413,2399,2281,2470,2463,4307,4353,4350,4366,4350,4350,4311,4350,4272,4353,4350,4272,
-8.4635275417121,-14.3555479845852,-5.89202044287318,12.0456471137122,6.234536447025,6.22468288295351,-0.97378461863762,-72.8445787552987,-68.7927053966794,11.4095377631487,-1.28575354941946,-10.1237842137292,4909,4955,4952,4894,4952,4952,4839,4952,4808,4955,4952,4808,2103,2064,2086,2088,2088,2088,2087,2030,2058,2045,2119,2115,1487,1366,1434,1450,1335,1324,1295,1357,1358,1391,2200,1300,2554,2561,2583,2564,2563,2568,2576,2497,2481,2320,2548,2579,5283,5329,5326,5343,5326,5326,5287,5326,5303,5329,5326,5303,
-8.4635275417121,-14.3555479845852,-5.89202044287318,12.0456471137122,6.234536447025,6.22468288295351,-0.97378461863762,-72.8445787552987,-68.7927053966794,11.4095377631487,-1.28575354941946,-10.1237842137292,5893,5930,5936,5879,5936,5936,5897,5936,5846,5930,5936,5846,2117,2087,2129,2103,2128,2122,2131,2065,2083,2088,2154,3077,2200,2197,2135,2183,2185,1422,1318,2146,2125,2143,2231,1436,2620,2629,2673,2643,2640,2634,2643,2560,2541,2354,2601,2635,6275,6322,6318,6335,6318,6318,6279,6318,6185,6322,6318,6185,
-8.4635275417121,-14.3555479845852,-5.89202044287318,12.0456471137122,6.234536447025,6.22468288295351,-0.97378461863762,-72.8445787552987,-68.7927053966794,11.4095377631487,-1.28575354941946,-10.1237842137292,6806,6926,6849,6866,6849,6849,6810,6849,6716,6926,6849,6716,2163,2125,3081,3072,3084,3082,3072,3105,3143,2144,3082,3118,2237,2242,2262,2242,2246,2201,1361,2182,2165,2240,2262,2174,3519,3527,3560,3595,3499,3497,3519,3496,3508,3311,3529,3508,7256,7303,7300,7318,7300,7300,7261,7300,7166,7303,7300,7166,
-8.4635275417121,-14.3555479845852,-5.89202044287318,12.0456471137122,6.234536447025,6.22468288295351,-0.97378461863762,-72.8445787552987,-68.7927053966794,11.4095377631487,-1.28575354941946,-10.1237842137292,7838,7861,7866,7825,7866,7866,7897,7866,7769,7861,7866,7769,3104,3080,3117,3120,3121,3121,3120,3120,3164,3080,3114,3160,2263,2265,2282,2267,2271,2252,2202,2205,2190,2263,2319,2211,3585,3602,3623,3674,3596,3597,3614,3588,3590,3349,3583,3605,8191,8237,8234,8252,8234,8234,8194,8234,8210,8237,8234,8210,
-8.4635275417121,-14.3555479845852,-5.89202044287318,12.0456471137122,6.234536447025,6.22468288295351,-44.9805727795979,-101.05084306406,-91.6085114706809,11.4095377631487,-1.28575354941946,-10.1237842137292,8770,8712,8738,8716,8738,8738,8648,8738,8630,8712,8738,8630,3155,3119,3148,3171,3151,3149,3171,3148,3192,3121,3154,4108,2319,2323,2301,2310,2303,2275,2260,2228,2240,2281,2358,2225,3665,3670,3672,3723,3695,3693,3683,3653,3653,3391,3631,3671,9120,9106,9163,9101,9163,9163,9023,9163,8969,9106,9163,8969,
-9.19420533222365,-14.3555479845852,-5.16134265236163,-4.32542387950001,-13.7979426775462,-8.13528603764804,-80.5033934056109,-123.988833054014,-112.809210710837,11.7748766584044,-2.01643133993101,-9.75844531847339,9765,9582,9807,9644,9807,9807,9588,9807,9529,9582,9807,9529,3203,3147,4186,4096,4113,4110,4111,4204,4167,3147,3166,4135,2408,2367,2354,2484,2348,2301,2280,2306,2289,3181,3222,2244,4543,4519,4641,4608,4524,4531,4655,4609,4535,4326,4566,4535, , , , , , , , , , , , ,
-13.4842363381474,-14.3555479845852,-0.871311646437889,-18.0090868544044,-29.5849869762311,-18.7400077661646,-104.691171038253,-138.630029558498,-126.374864589692,13.9198921613663,-6.30646234585474,-7.61342981551152, , , , , , , , , , , , ,4128,4110,4216,4133,4135,4134,4133,4213,4179,4006,4084,4219,3229,3234,3197,3191,3209,2326,2301,3197,3232,3271,3232,2278,4606,4615,4706,4706,4608,4609,4684,4684,4605,4365,4604,4620, , , , , , , , , , , , ,
-15.9062201066439,-14.3555479845852,1.55067212205866,-31.1409306764747,-45.8362342341161,-30.6132816409736,-117.437971550936,-146.078046906758,-133.16719989412,15.1308840456146,-8.72844611435129,-6.40243793126325, , , , , , , , , , , , ,4167,4135,4261,4163,4176,4178,4163,4293,4219,4054,4134,5089,3269,3273,3293,3273,3276,2355,2322,3271,3272,3294,3293,2304,4675,4692,4773,4768,4688,4695,4727,4748,4665,4413,4636,4692, , , , , , , , , , , , ,
-17.2285744876705,-14.3555479845852,2.87302650308523,-39.1387088715834,-57.0974765782186,-38.0914987232097,-120.438355932821,-147.854599307896,-135.444556352937,15.7920612361279,-10.0508004953779,-5.74126074074996, , , , , , , , , , , , ,4168,4169,5086,5101,5094,4198,5086,5116,5114,4094,4183,5127,3293,3301,3313,3299,3302,3210,2367,3294,3296,3315,3351,2358,5519,5510,5455,5585,5495,5495,5533,5487,5511,5310,5636,5454, , , , , , , , , , , , ,
-16.8623848513537,-14.3555479845852,2.50683686676838,-40.9743156495035,-62.6302328729389,-41.6468630855002,-115.399253993857,-144.264608195246,-132.044473365267,15.6089664179694,-9.68461085906101,-5.92435555890838, , , , , , , , , , , , ,4195,5095,5125,5134,5134,5104,5121,5135,5135,4137,5080,5184,3350,3345,3333,3341,3336,3283,3234,3316,3345,4192,3479,3236,5583,5590,5607,5661,5580,5587,5590,5578,5581,5342,5684,5596, , , , , , , , , , , , ,
-15.6364485558283,-14.3555479845852,1.28090057124304,-36.3401835188615,-58.6477520793701,-38.5201113990717,-104.642297445242,-143.53758359349,-125.192629912025,14.9959982702068,-8.45867456353567,-6.53732370667105, , , , , , , , , , , , ,4941,5130,5147,5168,5150,5136,5153,5171,5163,5095,5123,5214,3402,3397,3437,3520,3366,3306,3291,3469,3393,4287,4227,3276,5632,5645,5662,5680,5659,5659,5665,5636,5636,5398,5723,5649, , , , , , , , , , , , ,
-14.3612226344103,-14.3555479845852,0.00567464982499555,-30.0080064540933,-50.8590032260728,-34.702204896607,-89.9263813791108,-137.974040237892,-116.254648018229,14.3583853094977,-7.18344864211763,-7.17493666738008, , , , , , , , , , , , ,4989,5162,5167,6107,6096,5153,6108,6116,5878,5133,5147,6038,4248,4248,4331,4223,4230,3333,3311,4332,4248,4309,4240,3310,6500,6537,6575,6581,6511,6511,6536,6503,6481,6294,6511,6444, , , , , , , , , , , , ,
-12.1990604482528,-14.3555479845852,-2.15648753633245,-22.6433614520218,-41.8451649533088,-28.2249493237708,-72.8847769284359,-127.644984545617,-105.956344656607,13.277304216419,-5.02128645596018,-8.2560177604588, , , , , , , , , , , , ,5072,6122,6145,6133,6134,6096,6150,6133,5914,5162,5952,6072,4284,4289,4389,4289,4292,3358,3332,4367,4287,4330,4309,3336,6572,6625,6644,6663,6580,6583,6619,6571,6573,6334,6568,6596, , , , , , , , , , , , ,
-10.5683581008665,-14.3555479845852,-3.78718988371874,-14.9413197550505,-31.8896399383657,-21.3682148397961,-54.965487864551,-115.994367941785,-95.4301484398704,12.4619530427259,-3.39058410857389,-9.07136893415194, , , , , , , , , , , , ,6118,6160,6162,6166,6163,6133,6188,6144,6137,6121,5988,6137,4309,4310,4409,4314,4317,3394,3354,4391,4312,5220,4368,3392,6647,6688,6697,6704,6675,6675,6700,6632,6635,6368,6606,6656, , , , , , , , , , , , ,
-8.4635275417121,-14.3555479845852,-5.89202044287318,-7.47843424678091,-22.5560048130337,-14.6822339351311,-37.389875274094,-104.641233048495,-85.4058555774741,11.4095377631487,-1.28575354941946,-10.1237842137292, , , , , , , , , , , , ,6175,6214,6195,6186,7073,6163,7087,7067,7109,6147,6977,6780,4366,4361,4430,4358,4352,4234,3397,4413,4362,5263,4514,4250,7478,7469,7520,7558,7488,7488,7481,7424,7457,7401,7503,7441, , , , , , , , , , , , ,
-8.4635275417121,-14.3555479845852,-5.89202044287318,-0.0628383846334302,-13.1391189070098,-8.34876064163576,-21.1291905732487,-94.2153842525679,-76.1548975956076,11.4095377631487,-1.28575354941946,-10.1237842137292, , , , , , , , , , , , ,6195,6244,7085,7082,7115,7073,7113,7079,7113,6188,7029,6851,4416,4417,4539,4565,4390,4297,4262,4574,4509,5286,5149,4291,7557,7567,7589,7639,7558,7557,7563,7517,7554,7433,7553,7572, , , , , , , , , , , , ,
-8.4635275417121,-17.2894330184917,-8.82590547677962,6.48980610106288,-5.83694978420271,-2.95792183602112,-7.52563350241279,-85.1781804503905,-68.7927053966794,12.8764802801019,0.181188967533767,-13.0576692476356, , , , , , , , , , , , ,6902,7132,7099,7114,7140,7113,7133,7108,7135,7214,7076,7103,5136,5183,5225,5193,5186,4321,4306,5228,5224,5310,5175,4324,7641,7659,7658,7681,7652,7652,7645,7586,7620,7484,7588,7660, , , , , , , , , , , , ,
-8.4635275417121,-20.252079115939,-11.788551574227,11.6570079557019,1.5420200080805,1.98067566234726,-0.97378461863762,-77.8267179474324,-68.7927053966794,14.3578033288256,1.66251201625745,-16.020315345083, , , , , , , , , , , , ,6927,7145,7140,7161,8000,7140,8007,8034,8082,7243,8039,7997,5178,5265,5285,5266,5266,4349,4327,5262,5264,6196,5285,4354,8413,8404,8441,8221,8409,8409,8440,8409,8408,8208,8369,8373, , , , , , , , , , , , ,
-8.4635275417121,-21.2935416993321,-12.8300141576201,12.0456471137122,6.234536447025,5.79800002114484,-0.97378461863762,-72.8445787552987,-68.7927053966794,14.8785346205221,2.18324330795398,-17.061777928476, , , , , , , , , , , , ,7001,7161,8026,8001,8048,8017,8046,8047,8091,7281,8056,8037,5286,5286,5306,5290,5291,4376,4348,5286,5288,6255,5344,4478,8484,8493,8519,8243,8491,8492,8501,8482,8485,8251,8480,8510, , , , , , , , , , , , ,
-8.4635275417121,-21.853132535214,-13.3896049935019,12.0456471137122,6.234536447025,6.22468288295351,-0.97378461863762,-72.8445787552987,-68.7927053966794,15.158330038463,2.46303872589491,-17.6213687643579, , , , , , , , , , , , ,8026,7185,8059,8047,8093,8047,8092,8125,8099,7957,8125,8059,5343,5338,5325,5334,5325,4471,4370,5309,5338,6278,5450,5227,8551,8562,8573,8285,8573,8573,8572,8540,8542,8290,8509,8568, , , , , , , , , , , , ,
-8.4635275417121,-23.6608121783651,-15.197284636653,12.0456471137122,6.234536447025,6.22468288295351,-0.97378461863762,-72.8445787552987,-68.7927053966794,16.0621698600386,3.36687854747047,-19.429048407509, , , , , , , , , , , , ,8051,8053,8093,8078,8943,8093,8936,8994,8662,7972,8972,8079,5442,5454,5429,5507,5365,5187,4413,5385,5383,6298,5545,5268,9345,9351,9300,9368,9345,9345,9254,9345,9333,9139,9345,9333, , , , , , , , , , , , ,
-8.4635275417121,-24.459442413494,-15.9959148717819,12.0456471137122,6.234536447025,6.22468288295351,-0.97378461863762,-72.8445787552987,-68.7927053966794,16.461484977603,3.76619366503491,-20.2276786426379, , , , , , , , , , , , ,8085,8091,8921,8098,8976,8930,8975,9024,8692,8056,8985,8893,6216,6252,6255,6212,6221,5274,5210,6222,6161,7312,6147,5302,9412,9420,9448,9454,9422,9424,9367,9411,9413,9179,9408,9438, , , , , , , , , , , , ,
-8.4635275417121,-24.8639868101052,-16.4004592683931,12.0456471137122,6.234536447025,6.22468288295351,-0.97378461863762,-72.8445787552987,-68.7927053966794,16.6637571759086,3.96846586334051,-20.6322230392491, , , , , , , , , , , , ,8129,8120,8965,8902,9004,8975,8989,9061,8889,8936,9024,8921,6252,6291,6317,6258,6235,5298,5224,6254,6179,7323,6171,5329,9476,9489,9477,9495,9509,9509,9452,9472,9472,9215,9446, , , , , , , , , , , , , ,
-8.8128161302069,-26.222927563867,-17.4101114336602,12.0456471137122,6.234536447025,6.22468288295351,-0.97378461863762,-72.8445787552987,-68.7927053966794,17.517871847037,4.29864765172665,-21.8165194987636, , , , , , , , , , , , ,8965,8936,8987,8922,9024,8997, , , ,8973, , ,6277,6311,6338,6283,6261,5325,5267,6278,6256,7353,6277,5441, , , , , , , , , , , , , , , , , , , , , , , , ,
-10.6244087310834,-25.3884753929063,-14.764066661823,12.0456471137122,6.234536447025,6.22468288295351,-0.97378461863762,-72.8445787552987,-68.7927053966794,18.0064420619948,2.06982896536983,-20.0762710273646, , , , , , , , , , , , ,9015,8969,9007,8952, , , , , ,9003, , ,6335,6363,6357,6326,6286,5350,5288,6300,6325,7375,6336,6156, , , , , , , , , , , , , , , , , , , , , , , , ,
-12.5298861665297,-25.7107645421549,-13.1808783756252,12.0456471137122,6.234536447025,5.42071344363807,-0.97378461863762,-74.7430732488623,-68.7927053966794,19.1203253543423,0.325496104547777,-19.44582145889, , , , , , , , , , , , ,9034,9021, ,8972, , , , , , , , ,6386,6413,6453,6506,6320,5386,5309,6377,7146,7401,6483,6184, , , , , , , , , , , , , , , , , , , , , , , , ,
-14.4141756052121,-25.5367446840185,-11.1225690788064,10.980650036514,4.22698550730138,3.76413208351345,-0.97378461863762,-78.4099558812279,-71.9585228544304,19.9754601446153,-1.64580326320281,-18.3296568814124, , , , , , , , , , , , , ,9051, , , , , , , , , , ,7128,7199,7200,7177,6351,6223,5331,7170,7158,8104,7135,6261, , , , , , , , , , , , , , , , , , , , , , , , ,
-16.0770050967359,-24.626142156574,-8.54913705983815,8.7384060342829,1.92048063263087,2.42457942707312,-2.5763048962451,-81.9801224455339,-77.1433386650164,20.351573626655,-3.7639340184489,-16.5876396082061, , , , , , , , , , , , , , , , , , , , , , , , ,7154,7239,7258,7239,7192,6232,5373,7202,7237,8171,7152,6295, , , , , , , , , , , , , , , , , , , , , , , , ,
-17.2724251815638,-25.3713764571505,-8.09895127558669,6.56041791109863,-0.835128082468937,1.17489853413803,-6.57852055122974,-86.2175536684578,-80.7889102660879,21.3219008193572,-4.58673695298858,-16.7351638663685, , , , , , , , , , , , , , , , , , , , , , , , ,7259,7260,7279,7264,7242,6266,6235,7225,7308,8194,7259,6319, , , , , , , , , , , , , , , , , , , , , , , , ,
-18.1186981072039,-24.0646473248421,-5.94594921763819,4.16766331173267,-3.53030063872302,-0.534389740499711,-9.93726025230783,-89.4059628610048,-83.190750402426,21.091672716023,-6.08637444478287,-15.0052982712401, , , , , , , , , , , , , , , , , , , , , , , , ,7318,7315,7299,7309,7267,6290,6251,7248,8133,8215,7320,6324, , , , , , , , , , , , , , , , , , , , , , , , ,
-18.6187249205412,-22.4959643897294,-3.87723946918821,2.69439262427012,-5.45808210054008,-1.31555873092123,-12.4154008440218,-91.4420800094114,-86.6625901050045,20.5573446551353,-7.3707427256765,-13.1866019294588, , , , , , , , , , , , , , , , , , , , , , , , ,7401,7447,7396,7487,7302,6317,6292,7326,8172,9038,7445,7136, , , , , , , , , , , , , , , , , , , , , , , , ,
-18.7337394943333,-22.0072583409749,-3.27351884664164,0.823909837954609,-7.12219239907472,-1.63520315593542,-13.981373534297,-93.7373688476308,-88.4977879016815,20.3704989176541,-7.73011032384584,-12.6403885938082, , , , , , , , , , , , , , , , , , , , , , , , ,8131,8131,8136,8131,7339,6343,6313,8138,8197,9100,7498,7165, , , , , , , , , , , , , , , , , , , , , , , , ,
-19.4900288895697,-20.1456346330886,-0.655605743518877,-0.115515740077164,-7.74092266183299,-1.54016078520613,-14.5891911110861,-94.4291967708272,-89.8648315690191,19.8178317613292,-9.41721157302543,-10.4006201883037, , , , , , , , , , , , , , , , , , , , , , , , ,8169,8173,8194,8151,8133,6381,6335,8171,8246,9122,8152,7242, , , , , , , , , , , , , , , , , , , , , , , , ,
-20.4517301955141,-17.4254283374154,3.0263018580987,-0.431989037816713,-7.82485469691107,-0.961461563325208,-14.2441150392074,-94.1503798207706,-90.708476368401,18.9385792664647,-11.7390160268064,-7.19956323965828, , , , , , , , , , , , , , , , , , , , , , , , ,8194,8193,8214,8173,8151,7200,6356,8194,8295,9147,8162,7275, , , , , , , , , , , , , , , , , , , , , , , , ,
-19.5438652632013,-14.7957492255514,4.74811603764992,-0.572655955777684,-7.53500585969436,0.0347345140403315,-12.9921346645014,-93.1641910064473,-89.9883663734085,17.1698072443763,-12.1459906504256,-5.02381659395068, , , , , , , , , , , , , , , , , , , , , , , , ,8252,8245,8234,8198,8176,7214,6428,8217,8952, ,8194,7303, , , , , , , , , , , , , , , , , , , , , , , , ,
-19.8650183572941,-14.3555479845852,5.50947037270883,-0.0528165390634214,-6.4643573570861,1.59769048531586,-10.9086842251997,-93.4786330869444,-88.6904796031239,17.1102831709397,-12.6872443650015,-4.42303880593816, , , , , , , , , , , , , , , , , , , , , , , , ,8342,8367,8352,8221,8201,7246,7197,8342,8993, ,8253,7318, , , , , , , , , , , , , , , , , , , , , , , , ,
-18.4260073700478,-14.3555479845852,4.07045938546254,0.478950849249721,-5.19716297026889,3.66128896738098,-8.08750550799662,-91.2441205238703,-86.9495686814451,16.3907776773165,-11.2482333777552,-5.1425442995613, , , , , , , , , , , , , , , , , , , , , , , , ,9060,9063,9054,9005,8237,7271,7211,9065,9021, ,8290,8119, , , , , , , , , , , , , , , , , , , , , , , , ,
-16.8605412188917,-14.3555479845852,2.50499323430641,1.2941096973425,-2.96612413724551,6.22468288295351,-4.63045232251691,-88.5802313933527,-84.8477440964004,15.6080446017385,-9.68276722659904,-5.92527737513937, , , , , , , , , , , , , , , , , , , , , , , , ,9097,9102,9087,9026,8274,7299,7255,9099,9100, ,9061,8210, , , , , , , , , , , , , , , , , , , , , , , , ,
-15.2178899377759,-14.3555479845852,0.862341953190607,3.22863936271586,-0.862330735024098,6.22468288295351,-0.97378461863762,-85.5628938088905,-82.467000291836,14.7867189611805,-8.04011594548324,-6.74660301569727, , , , , , , , , , , , , , , , , , , , , , , , ,9122,9122,9122,9048,9064,7326,7276,9123,9125, ,9092,8237, , , , , , , , , , , , , , , , , , , , , , , , ,
-13.5370702082425,-14.3555479845852,-0.818477776342733,4.97465212847192,2.32781428271449,6.22468288295351,-0.97378461863762,-82.2623286813406,-79.8848145865386,13.9463090964139,-6.3592962159499,-7.58701288046394, , , , , , , , , , , , , , , , , , , , , , , , ,9179,9175,9143,9073,9105,7358,7298,9145,9174, ,9122,8361, , , , , , , , , , , , , , , , , , , , , , , , ,
-11.8444177957169,-14.3555479845852,-2.51113018886839,6.88517848065647,6.234536447025,6.22468288295351,-0.97378461863762,-78.740312027211,-77.1710658095256,13.099982890151,-4.66664380342424,-8.43333908672677, , , , , , , , , , , , , , , , , , , , , , , , ,9235,9313,9165,9116,9130,8135,7320,9280,9254, ,9180,8937, , , , , , , , , , , , , , , , , , , , , , , , ,
-10.1529716860594,-9.69822474711313,0.454746938946257,9.54635298124914,6.234536447025,6.22468288295351,-0.97378461863762,-75.0488274727183,-74.386155807066,9.92559821658628,-5.30385931250284,-4.6217389040834, , , , , , , , , , , , , , , , , , , , , , , , , , , ,9290,9164,8180,7363, , , ,9318,8968, , , , , , , , , , , , , , , , , , , , , , , , ,
-8.4635275417121,-4.10717200093634,4.35635554077571,12.0456471137122,6.234536447025,6.22468288295351,-0.97378461863762,-72.8445787552987,-71.5801463557585,6.28534977132422,-6.4099415412439,0.124591769919723, , , , , , , , , , , , , , , , , , , , , , , , , , , , ,9206,8206,8132, , , , ,9104, , , , , , , , , , , , , , , , , , , , , , , , ,
-8.4635275417121,1.7396823976043,10.2032099393164,13.8475661556628,6.234536447025,6.22468288295351,-0.97378461863762,-72.8445787552987,-68.7927053966794,3.36192257205389,-9.33336874051422,5.97144616846037, , , , , , , , , , , , , , , , , , , , , , , , , , , , , ,8233,8147, , , , ,9138, , , , , , , , , , , , , , , , , , , , , , , , ,
-8.4635275417121,7.81546268570784,16.2789902274199,21.0616356623564,6.234536447025,6.22468288295351,-0.97378461863762,-72.8445787552987,-68.7927053966794,0.324032428002122,-12.371258884566,12.0472264565639, , , , , , , , , , , , , , , , , , , , , , , , , , , , , ,8262,8190, , , , ,9165, , , , , , , , , , , , , , , , , , , , , , , , ,
-8.4635275417121,14.0904866439496,22.5540141856617,26.3419217406693,12.6683159242459,13.3047939575229,0.166663586570638,-72.8445787552987,-68.7927053966794,-2.81347955111877,-15.5087708636869,18.3222504148057, , , , , , , , , , , , , , , , , , , , , , , , , , , , , ,8292,8212, , , , ,9181, , , , , , , , , , , , , , , , , , , , , , , , ,
-8.4635275417121,20.5330156157773,28.9965431574894,31.9914835116639,25.5088710364312,25.3790397878896,10.9152100173321,-72.8445787552987,-68.7927053966794,-6.03474403703262,-18.7300353496007,24.7647793866334, , , , , , , , , , , , , , , , , , , , , , , , , , , , , ,9064,8299, , , , , , , , , , , , , , , , , , , , , , , , , , , , , ,
-8.4635275417121,27.1099948569876,35.5735223986996,37.9593470630641,36.1903716509281,37.2713452149271,19.6830021653841,-72.8445787552987,-68.7927053966794,-9.32323365763775,-22.0185249702059,31.3417586278437, , , , , , , , , , , , , , , , , , , , , , , , , , , , , ,9111,9006, , , , , , , , , , , , , , , , , , , , , , , , , , , , , ,
-8.4635275417121,33.7876683807073,42.2511959224194,44.1898783534554,45.9250323532338,45.6604066554387,29.1614378343009,-72.8445787552987,-68.7927053966794,-12.6620704194976,-25.3573617320657,38.0194321515634, , , , , , , , , , , , , , , , , , , , , , , , , , , , , ,9134,9054, , , , , , , , , , , , , , , , , , , , , , , , , , , , , ,
-8.4635275417121,40.5319819833302,48.9955095250422,50.6248537978468,58.8791331121296,58.5032216357786,38.9432555761114,-72.8445787552987,-68.7927053966794,-16.034227220809,-28.7295185333771,44.7637457541862, , , , , , , , , , , , , , , , , , , , , , , , , , , , , ,9161,9119, , , , , , , , , , , , , , , , , , , , , , , , , , , , , ,
-8.4635275417121,47.3087315537987,55.7722590955108,57.2054984018073,68.8406335340234,66.7640759958746,47.9162391978889,-72.8445787552987,-68.7927053966794,-19.4226020060433,-32.1178933186114,51.5404953246548, , , , , , , , , , , , , , , , , , , , , , , , , , , , , ,9187,9140, , , , , , , , , , , , , , , , , , , , , , , , , , , , , ,
-8.4635275417121,54.083459002549,62.5469865442611,63.8742976800053,77.354537279261,78.1738134565735,57.2239144544569,-72.8445787552987,-68.7927053966794,-22.8099657304185,-35.5052570429866,58.3152227734051, , , , , , , , , , , , , , , , , , , , , , , , , , , , , ,9223,9250, , , , , , , , , , , , , , , , , , , , , , , , , , , , , ,
-8.4635275417121,60.8211443099223,69.2846718516344,70.5764250984791,86.0597605502509,88.297337576868,64.9762186032467,-72.8445787552987,-68.7927053966794,-26.1788083841051,-38.8740996966732,65.0529080807784, , , , , , , , , , , , , , , , , , , , , , , , , , , , , , , , , , , , , , , , , , , , , , , , , , , , , , , , , , , , ,
-8.4635275417121,67.4857831243518,75.9493106660639,77.2606903934095,94.9076420629694,101.045670178149,72.151216972901,-72.8445787552987,-68.7927053966794,-29.5111277913199,-42.206419103888,71.7175468952079, , , , , , , , , , , , , , , , , , , , , , , , , , , , , , , , , , , , , , , , , , , , , , , , , , , , , , , , , , , , ,
-8.4635275417121,74.0399560820573,82.5034836237694,83.8800065835306,103.849693085736,111.890994084992,79.9649269701322,-70.8059161031236,-68.7927053966794,-32.7882142701726,-45.4835055827407,78.2717198529134, , , , , , , , , , , , , , , , , , , , , , , , , , , , , , , , , , , , , , , , , , , , , , , , , , , , , , , , , , , , ,
-8.4635275417121,80.4444708417763,88.9079983834883,90.3914539276727,112.83790703728,122.119183240796,88.9273967410313,-66.5976482507316,-68.7927053966794,-35.9904716500321,-48.6857629626002,84.6762346126323, , , , , , , , , , , , , , , , , , , , , , , , , , , , , , , , , , , , , , , , , , , , , , , , , , , , , , , , , , , , ,
-8.4635275417121,86.6580885073807,95.1216160490927,96.7560318637397,121.824698573031,133.625258794777,96.446437922978,-61.8734143237398,-68.7927053966794,-39.0972804828343,-51.7925717954024,90.8898522782367, , , , , , , , , , , , , , , , , , , , , , , , , , , , , , , , , , , , , , , , , , , , , , , , , , , , , , , , , , , , ,
-8.4635275417121,92.6372533446641,101.100780886376,102.938127742105,130.762407210485,142.44682891078,105.68098797294,-56.0380998229284,-68.7927053966794,-42.086862901476,-54.7821542140441,96.8690171155201, , , , , , , , , , , , , , , , , , , , , , , , , , , , , , , , , , , , , , , , , , , , , , , , , , , , , , , , , , , , ,
-8.4635275417121,98.3356726437526,106.799200185465,108.904651836117,139.602308368131,150.836620623977,113.327508041753,-51.8012138428673,-68.7927053966794,-44.9360725510203,-57.6313638635884,102.567436414609, , , , , , , , , , , , , , , , , , , , , , , , , , , , , , , , , , , , , , , , , , , , , , , , , , , , , , , , , , , , ,
-8.4635275417121,103.703594444046,112.167121985758,114.623758142188,148.293109074696,158.983168011065,121.654894892842,-45.6505538374147,-68.7927053966794,-47.6200334511669,-60.315324763735,107.935358214902, , , , , , , , , , , , , , , , , , , , , , , , , , , , , , , , , , , , , , , , , , , , , , , , , , , , , , , , , , , , ,
-8.4635275417121,108.686734300074,117.150261841786,120.063105684435,156.778967742073,166.822953331457,130.09115673577,-40.9159211134497,-68.7927053966794,-50.111603379181,-62.8068946917491,112.91849807093, , , , , , , , , , , , , , , , , , , , , , , , , , , , , , , , , , , , , , , , , , , , , , , , , , , , , , , , , , , , ,
-8.4635275417121,113.224985992838,121.68851353455,125.187684349039,164.997153786065,174.287660701368,137.691076736793,-36.7583494683803,-68.7927053966794,-52.380729225563,-65.0760205381311,117.456749763694, , , , , , , , , , , , , , , , , , , , , , , , , , , , , , , , , , , , , , , , , , , , , , , , , , , , , , , , , , , , ,
-6.48212561710091,117.251242999015,123.733368616116,129.957299602654,172.875532490011,181.301980812448,145.107180872442,-31.5704492290847,-67.0200444463903,-55.384558690957,-65.1077471166083,120.492305807565, , , , , , , , , , , , , , , , , , , , , , , , , , , , , , , , , , , , , , , , , , , , , , , , , , , , , , , , , , , , ,
-4.51186475918152,120.690785861065,125.202650620246,134.323876770411,180.330115382247,187.781612073277,150.971439136908,-26.7451309239921,-64.8448971137901,-58.0894605509417,-64.857257689714,122.946718240656, , , , , , , , , , , , , , , , , , , , , , , , , , , , , , , , , , , , , , , , , , , , , , , , , , , , , , , , , , , , ,
-2.54982125990785,123.461731741218,126.011553001125,138.228823776825,187.26297134543,193.631824957267,156.226182544723,-22.7630549995702,-62.6888870718074,-60.4559552406549,-64.2806871305166,124.736642371171, , , , , , , , , , , , , , , , , , , , , , , , , , , , , , , , , , , , , , , , , , , , , , , , , , , , , , , , , , , , ,
-0.599431031121812,125.47700090808,126.076431939202,141.600785728509,193.560859197711,198.746976037234,160.978761737905,-17.6901556681261,-60.5927753226544,-62.4387849384791,-63.3379314851618,125.776716423641, , , , , , , , , , , , , , , , , , , , , , , , , , , , , , , , , , , , , , , , , , , , , , , , , , , , , , , , , , , , ,
3.32891866848243,126.648114214099,123.319195545616,144.354202415166,199.094992504829,203.011343669674,164.76573463367,-14.7632747811005,-58.6060593341545,-64.9885164412905,-59.9951384385668,124.983654879857, , , , , , , , , , , , , , , , , , , , , , , , , , , , , , , , , , , , , , , , , , , , , , , , , , , , , , , , , , , , ,
5.91071116845441,126.890874880232,120.980163711778,146.38908752168,203.722333116654,206.301572782891,167.638387056677,-11.5902620583228,-56.7843441665489,-66.4007930243433,-57.5347262716617,123.935519296005, , , , , , , , , , , , , , , , , , , , , , , , , , , , , , , , , , , , , , , , , , , , , , , , , , , , , , , , , , , , ,
8.93006331297349,126.132641187604,117.20257787463,147.592362361231,207.288707329515,208.490851784791,169.718940035804,-9.31064059944244,-54.7946311178053,-67.5313522502885,-54.1362572808283,121.667609531117, , , , , , , , , , , , , , , , , , , , , , , , , , , , , , , , , , , , , , , , , , , , , , , , , , , , , , , , , , , , ,
10.8080544471929,124.320551144229,113.512496697036,147.840924045591,209.633867401939,209.454728430431,170.524532096183,-7.06803443043772,-51.3429343069717,-67.5643027957107,-51.3522211249214,118.916523920632, , , , , , , , , , , , , , , , , , , , , , , , , , , , , , , , , , , , , , , , , , , , , , , , , , , , , , , , , , , , ,
14.4956529048184,121.429797638368,106.93414473355,147.006454967728,210.598418306456,209.078247530975,170.107733458244,-5.1078553499682,-48.2616152370419,-67.9627252715933,-46.2192459143657,114.181971185959, , , , , , , , , , , , , , , , , , , , , , , , , , , , , , , , , , , , , , , , , , , , , , , , , , , , , , , , , , , , ,
18.0893556758447,117.470920077919,99.3815644020743,144.961816158539,210.032319396921,207.263899340334,168.499855856868,-4.89368534595725,-45.5906549675145,-67.7801378768819,-40.6461043631148,108.426242239997, , , , , , , , , , , , , , , , , , , , , , , , , , , , , , , , , , , , , , , , , , , , , , , , , , , , , , , , , , , , ,
19.7892846546407,112.495097985241,92.7058133306006,141.588715275476,207.804463682375,203.939727916176,165.532168413582,-5.01008931667037,-44.8038194695937,-66.142191319941,-36.45826433798,102.600455657921, , , , , , , , , , , , , , , , , , , , , , , , , , , , , , , , , , , , , , , , , , , , , , , , , , , , , , , , , , , , ,
22.7329693807627,106.596603838423,83.8636344576604,136.786197675692,203.812649988724,199.066877223749,161.432918113509,-6.5566196731245,-43.5197570300606,-64.6647866095929,-30.5653325384488,95.2301191480418, , , , , , , , , , , , , , , , , , , , , , , , , , , , , , , , , , , , , , , , , , , , , , , , , , , , , , , , , , , , ,
25.943475495504,99.9118685529561,73.9683930574521,130.47938645845,197.993131586625,192.645857838867,155.661144101803,-8.95122790162851,-42.0847719894719,-62.9276720242301,-24.012458780974,86.9401308052041, , , , , , , , , , , , , , , , , , , , , , , , , , , , , , , , , , , , , , , , , , , , , , , , , , , , , , , , , , , , ,
28.4112804540872,92.6149825446843,64.203702090597,122.627816940771,190.328886943484,184.720902677128,149.068242135579,-12.1967924107384,-41.0088947606288,-60.5131314993858,-17.8962108182549,78.4093423176407, , , , , , , , , , , , , , , , , , , , , , , , , , , , , , , , , , , , , , , , , , , , , , , , , , , , , , , , , , , , ,
29.8165297109083,84.909846386259,55.0933166753506,113.232683305758,180.855815874229,175.381934175015,141.212070830565,-15.3516893745145,-40.8688538600957,-57.3631880485837,-12.6383934822211,70.0015815308048, , , , , , , , , , , , , , , , , , , , , , , , , , , , , , , , , , , , , , , , , , , , , , , , , , , , , , , , , , , , ,
32.7944884343175,77.0195608681398,44.2250724338223,102.342328218147,169.666185205242,164.514547356684,132.44018338791,-19.9466719456884,-41.6422731528819,-54.9070246512287,-5.71529199975239,60.6223166509811, , , , , , , , , , , , , , , , , , , , , , , , , , , , , , , , , , , , , , , , , , , , , , , , , , , , , , , , , , , , ,
34.5099884809615,69.1739760504141,34.6639875694525,90.0553519533311,156.908819228146,152.793798560528,122.916027934173,-24.7115279280876,-41.1904313310354,-51.8419822656878,-0.0769995442455143,51.9189818099334, , , , , , , , , , , , , , , , , , , , , , , , , , , , , , , , , , , , , , , , , , , , , , , , , , , , , , , , , , , , ,
36.5659263362014,61.5965609546506,25.0306346184492,76.5208152978274,142.785776028247,140.182281302333,112.511383584859,-27.3649796519269,-40.7435210037983,-49.081243645426,5.76764585887612,43.3135977865499, , , , , , , , , , , , , , , , , , , , , , , , , , , , , , , , , , , , , , , , , , , , , , , , , , , , , , , , , , , , ,
37.5135677109996,54.4918636291978,16.9782959181981,61.9351908540579,127.545579071724,126.643809610434,101.593870204471,-32.5915485170438,-41.899697520521,-46.0027156700987,10.2676358964008,35.735079773698, , , , , , , , , , , , , , , , , , , , , , , , , , , , , , , , , , , , , , , , , , , , , , , , , , , , , , , , , , , , ,
40.8579611302489,48.0347744670002,7.17681333675129,46.5359906815444,111.473435333989,112.302964362484,90.5083033343654,-34.3453431978419,-42.152010292191,-44.4463677986246,16.8405738967488,27.6057939018758, , , , , , , , , , , , , , , , , , , , , , , , , , , , , , , , , , , , , , , , , , , , , , , , , , , , , , , , , , , , ,
44.4368308392926,42.3625786163273,-2.07425222296534,30.5923403592781,94.8791868334671,98.5122492384895,79.4702065635481,-38.9703502844375,-42.7439113513748,-43.3997047278099,23.255541531129,20.144163196681, , , , , , , , , , , , , , , , , , , , , , , , , , , , , , , , , , , , , , , , , , , , , , , , , , , , , , , , , , , , ,
46.4103246812523,37.570414904791,-8.8399097764614,14.3931287657235,78.083944496541,84.8480479377927,68.6835495199016,-40.8240467703004,-41.4326943016547,-41.9903697930217,27.6251172288569,14.3652525641648, , , , , , , , , , , , , , , , , , , , , , , , , , , , , , , , , , , , , , , , , , , , , , , , , , , , , , , , , , , , ,
50.2584105985229,33.7103180658801,-16.5480925326429,-1.7663304045169,61.4064068445199,71.5548006524438,58.3334367567868,-44.435460078653,-39.6773046166682,-41.9843643322015,33.4032515655829,8.58111276661866, , , , , , , , , , , , , , , , , , , , , , , , , , , , , , , , , , , , , , , , , , , , , , , , , , , , , , , , , , , , ,
54.6766904850743,30.7935992591981,-23.8830912258763,-17.5980108749226,45.1497728653124,58.8536568355354,48.5802818967809,-47.3752818602984,-39.0674813360319,-42.7351448721362,39.2798908554753,3.45525401666095, , , , , , , , , , , , , , , , , , , , , , , , , , , , , , , , , , , , , , , , , , , , , , , , , , , , , , , , , , , , ,
57.6593183673478,29.4504912041404,-28.2088271632075,-32.8341434872685,29.5899622552148,46.9350509566841,39.5555906249908,-49.4253041089605,-37.0526540016471,-43.5549047857441,42.9340727652777,0.620832020466485, , , , , , , , , , , , , , , , , , , , , , , , , , , , , , , , , , , , , , , , , , , , , , , , , , , , , , , , , , , , ,
62.4137835483266,30.7335911175519,-31.6801924307747,-47.238483750565,14.96563956875,35.9529625343741,31.3593102365669,-51.1567516338482,-33.8235267556627,-46.5736873329393,47.0469879895506,-0.473300656611338, , , , , , , , , , , , , , , , , , , , , , , , , , , , , , , , , , , , , , , , , , , , , , , , , , , , , , , , , , , , ,
66.1120754826856,32.9943726825399,-33.1177028001457,-60.6151583493809,-0.128153819262134,26.0209304019298,24.0586222044465,-50.7151903691513,-31.5940974168972,-49.5532240826127,49.6148891414156,-0.0616650588028822, , , , , , , , , , , , , , , , , , , , , , , , , , , , , , , , , , , , , , , , , , , , , , , , , , , , , , , , , , , , ,
71.288810715174,38.0635954998666,-33.2252152153074,-72.8146294287947,-12.439820413074,17.2098946883968,17.6880597476602,-51.180217203045,-28.3616663083463,-54.6762031075203,52.2570129652407,2.41919014227964, , , , , , , , , , , , , , , , , , , , , , , , , , , , , , , , , , , , , , , , , , , , , , , , , , , , , , , , , , , , ,
75.1486093499283,39.2741461667864,-35.8744631831419,-83.7365735272912,-23.3008003159019,9.54797476452313,12.2508775178064,-51.8081340721888,-23.6765503109074,-57.2113777583573,55.5115362665351,1.69984149182227, , , , , , , , , , , , , , , , , , , , , , , , , , , , , , , , , , , , , , , , , , , , , , , , , , , , , , , , , , , , ,
80.9612325353812,44.945588877797,-36.0156436575843,-93.3297395040595,-32.762834492442,3.02226124496769,7.72161439221306,-52.1096716850658,-20.9670263579115,-62.9534107065891,58.4884380964827,4.46497261010638, , , , , , , , , , , , , , , , , , , , , , , , , , , , , , , , , , , , , , , , , , , , , , , , , , , , , , , , , , , , ,
86.1664105266344,49.9773681361754,-36.189042390459,-101.589110130182,-40.839265253001,-2.4174396497765,4.04973482195239,-51.7997011315422,-15.7440098890742,-68.0718893314049,61.1777264585467,6.89416287285826, , , , , , , , , , , , , , , , , , , , , , , , , , , , , , , , , , , , , , , , , , , , , , , , , , , , , , , , , , , , ,
90.8346201880614,53.2984636692289,-37.5361565188325,-108.550893941202,-47.5883150305509,-6.85317002988916,1.16413574841728,-50.9367389318356,-11.3550721577612,-72.0665419286452,64.185388353447,7.88115357519826, , , , , , , , , , , , , , , , , , , , , , , , , , , , , , , , , , , , , , , , , , , , , , , , , , , , , , , , , , , , ,
96.5060516622612,59.6593502000231,-36.8467014622381,-114.285970434844,-53.1058569476257,-10.392114895752,-1.02177494364603,-49.5883827649619,-7.51537367922053,-78.0827009311421,66.6763765622496,11.4063243688925, , , , , , , , , , , , , , , , , , , , , , , , , , , , , , , , , , , , , , , , , , , , , , , , , , , , , , , , , , , , ,
100.313471773497,64.7135703441503,-35.599901429347,-118.892394344222,-57.5168675256293,-13.1591159902978,-2.60474695107312,-47.8276816974819,-3.69918360347326,-82.5135210588238,67.9566866014221,14.5568344574017, , , , , , , , , , , , , , , , , , , , , , , , , , , , , , , , , , , , , , , , , , , , , , , , , , , , , , , , , , , , ,
105.471945846563,68.612616888527,-36.8593289580362,-122.48746433927,-60.9661513107858,-15.288872161799,-3.6863897659682,-45.7297876788936,0.0302081418422659,-87.042281367545,71.1656374022996,15.8766439652454, , , , , , , , , , , , , , , , , , , , , , , , , , , , , , , , , , , , , , , , , , , , , , , , , , , , , , , , , , , , ,
108.779202794976,71.8806775108752,-36.8985252841005,-125.199732298522,-63.6088664352131,-16.9182268663429,-4.36813316925484,-43.3690321482728,3.90360220841735,-90.3299401529255,72.8388640395381,17.4910761133874, , , , , , , , , , , , , , , , , , , , , , , , , , , , , , , , , , , , , , , , , , , , , , , , , , , , , , , , , , , , ,
112.814590296165,75.261958195884,-37.5526321002809,-127.161229769354,-65.6013086201144,-18.1788793339316,-4.74661523305711,-40.8165167923375,7.88912676495575,-94.0382742460245,75.1836111982229,18.8546630478016, , , , , , , , , , , , , , , , , , , , , , , , , , , , , , , , , , , , , , , , , , , , , , , , , , , , , , , , , , , , ,
115.234082565739,78.7132459562187,-36.5208366095203,-128.500152324561,-67.0923605956158,-19.1908260262826,-4.90964616056224,-38.138277517697,11.9555569532684,-96.9736642609789,75.8774595876296,21.0962046733493, , , , , , , , , , , , , , , , , , , , , , , , , , , , , , , , , , , , , , , , , , , , , , , , , , , , , , , , , , , , ,
117.118010043182,82.1915469724076,-34.9264630707749,-129.334256475028,-68.2159856250132,-20.0568375251558,-4.93290494591018,-35.3940716239917,16.0709846184754,-99.654778507795,76.0222365569787,23.6325419508164, , , , , , , , , , , , , , , , , , , , , , , , , , , , , , , , , , , , , , , , , , , , , , , , , , , , , , , , , , , , ,
118.94708664987,85.6540213472283,-33.2930653026418,-129.765243181092,-69.0851095055676,-20.8582627114923,-5.00373089098387,-32.6368250196189,20.2012995394742,-102.300553998549,76.120075976256,26.1804780222933, , , , , , , , , , , , , , , , , , , , , , , , , , , , , , , , , , , , , , , , , , , , , , , , , , , , , , , , , , , , ,
119.966937218014,89.0581942218721,-30.9087429961418,-129.874394197337,-69.7871695326112,-21.6523891629431,-4.91495028268376,-29.9127375278266,24.9805782402735,-104.512565719943,75.4378401070778,29.0747256128652, , , , , , , , , , , , , , , , , , , , , , , , , , , , , , , , , , , , , , , , , , , , , , , , , , , , , , , , , , , , ,
120.161912517055,92.3621326211191,-27.7997798959361,-129.719685608045,-70.3815084124853,-22.4714731882652,-4.82179974034851,-27.2619806489614,29.0799362338424,-106.262022569087,73.9808462064956,32.2811763625916, , , , , , , , , , , , , , , , , , , , , , , , , , , , , , , , , , , , , , , , , , , , , , , , , , , , , , , , , , , , ,
119.870782314987,95.5243332598637,-24.3464490551232,-129.51799354977,-70.8986697635668,-23.3234159487751,-5.1453311371208,-25.0507138905561,33.0051703797671,-107.697557787425,72.108615685055,35.5889421023703, , , , , , , , , , , , , , , , , , , , , , , , , , , , , , , , , , , , , , , , , , , , , , , , , , , , , , , , , , , , ,
119.044323936857,98.5031792618385,-20.5411446750186,-129.129877280012,-71.3415295356667,-24.1939425157069,-5.07088385807195,-22.6490989102418,36.7573836267637,-108.773751599348,69.7927343059378,38.98101729341, , , , , , , , , , , , , , , , , , , , , , , , , , , , , , , , , , , , , , , , , , , , , , , , , , , , , , , , , , , , ,
117.778137017915,101.255986035665,-16.52215098225,-128.574507649756,-73.2521391468022,-25.050057751744,-5.35774944802686,-20.417995050665,40.2717295609002,-109.51706152679,67.1501440000827,42.3669175267078, , , , , , , , , , , , , , , , , , , , , , , , , , , , , , , , , , , , , , , , , , , , , , , , , , , , , , , , , , , , ,
116.117357980812,103.737841346348,-12.3795166344642,-127.847647307529,-75.133923537963,-26.517828058826,-5.56914970696265,-18.3870044341857,43.4759787671723,-109.92759966358,64.2484373076383,45.679162355942, , , , , , , , , , , , , , , , , , , , , , , , , , , , , , , , , , , , , , , , , , , , , , , , , , , , , , , , , , , , ,
114.108321681262,105.900581616965,-8.20774006429708,-126.924872215668,-76.8052465290136,-27.8628119361333,-5.88588971250964,-16.5865746012643,46.2915840831669,-110.004451649113,61.1580308727793,48.8464207763338, , , , , , , , , , , , , , , , , , , , , , , , , , , , , , , , , , , , , , , , , , , , , , , , , , , , , , , , , , , , ,
111.795471324725,108.132469487909,-3.66300183681581,-125.765722729015,-76.6189454664038,-28.87250535842,-5.73387824433233,-15.0488732914282,48.6354900254737,-109.963970406317,57.7292365807702,52.2347338255465, , , , , , , , , , , , , , , , , , , , , , , , , , , , , , , , , , , , , , , , , , , , , , , , , , , , , , , , , , , , ,
109.218691824549,109.497635702768,0.278943878218981,-123.71900105934,-77.5754920704306,-29.2948036736548,-5.87367523940723,-13.8081793362196,50.4226556565174,-109.358163763658,54.4698739731648,54.8882897904933, , , , , , , , , , , , , , , , , , , , , , , , , , , , , , , , , , , , , , , , , , , , , , , , , , , , , , , , , , , , ,
106.411015633209,110.378425779363,3.96741014615364,-121.631054383839,-77.1210342413841,-29.9546641193171,-5.7181227874871,-12.9006994878932,51.5692235525831,-108.394720706286,51.2218027435279,57.1729179627584, , , , , , , , , , , , , , , , , , , , , , , , , , , , , , , , , , , , , , , , , , , , , , , , , , , , , , , , , , , , ,
103.396652617871,110.716600569887,7.31994795201614,-119.313295817761,-76.6718637388138,-30.2256226362649,-5.38936536347658,-12.3637508965585,51.9962349430628,-107.056626593879,48.0383523329273,59.0182742609516, , , , , , , , , , , , , , , , , , , , , , , , , , , , , , , , , , , , , , , , , , , , , , , , , , , , , , , , , , , , ,
100.189414637387,110.456263439166,10.2668488017789,-115.848455933048,-76.1466424707513,-29.6072239657231,-4.90274602759812,-12.2343001039535,51.6337439770371,-105.322839038276,44.9612829178039,60.3615561204724, , , , , , , , , , , , , , , , , , , , , , , , , , , , , , , , , , , , , , , , , , , , , , , , , , , , , , , , , , , , ,
96.7917712652041,109.547082572397,12.7553113071931,-112.215954360015,-74.6755919593667,-29.2919007488583,-4.3982704982095,-12.5469249274299,50.4251219283158,-103.169426918801,42.0182299790055,61.1511969397952, , , , , , , , , , , , , , , , , , , , , , , , , , , , , , , , , , , , , , , , , , , , , , , , , , , , , , , , , , , , ,
93.1948995967247,107.947742230057,14.7528426333325,-108.427986320474,-71.9953922272424,-28.6796847568788,-3.834012686538,-13.3313512875088,48.3312813664709,-100.571320913391,39.2210284816961,61.3502924316949, , , , , , , , , , , , , , , , , , , , , , , , , , , , , , , , , , , , , , , , , , , , , , , , , , , , , , , , , , , , ,
89.3800915194477,105.629310678645,16.2492191591968,-104.180410326549,-69.6610023035987,-27.373130685478,-3.38233220412529,-14.6097946770855,45.334501205594,-97.5047010990461,36.5654361801254,60.9392649189207, , , , , , , , , , , , , , , , , , , , , , , , , , , , , , , , , , , , , , , , , , , , , , , , , , , , , , , , , , , , ,
85.3217183382359,102.578146215764,17.2564278775276,-99.4927757491147,-66.7294529339007,-25.7875431841399,-2.7018979428676,-16.3943907466318,41.4414994490166,-93.9499322769997,34.0326452303541,59.9172870466456, , , , , , , , , , , , , , , , , , , , , , , , , , , , , , , , , , , , , , , , , , , , , , , , , , , , , , , , , , , , ,
80.9916691203805,98.797919812067,17.8062506916864,-93.6750850737825,-63.2757127146813,-24.5014009311536,-2.06954510066565,-18.6850162788713,36.6853961124679,-89.8947944662237,31.5927092143471,58.3020852518767, , , , , , , , , , , , , , , , , , , , , , , , , , , , , , , , , , , , , , , , , , , , , , , , , , , , , , , , , , , , ,
76.3648608832004,94.3103847372992,17.9455238540988,-87.6804020565756,-59.4022465536904,-23.1622940854369,-1.69607769825573,-21.4677689157752,31.1262588943342,-85.3376228102498,29.2096685145508,56.127954295699, , , , , , , , , , , , , , , , , , , , , , , , , , , , , , , , , , , , , , , , , , , , , , , , , , , , , , , , , , , , ,
71.4251443742718,89.1546910273132,17.7295466530414,-81.9918621242241,-55.2331320251729,-21.8627871206713,-1.21707608848304,-24.7142959260174,24.8500387246267,-80.2899177007925,26.8477988606152,53.4421188401774, , , , , , , , , , , , , , , , , , , , , , , , , , , , , , , , , , , , , , , , , , , , , , , , , , , , , , , , , , , , ,
66.1707723746451,83.3852879820965,17.2145156074513,-76.1282221110367,-50.9066929391747,-19.7488668729819,-0.915555949518859,-28.3820601121615,18.2429579710535,-74.7780301783708,24.4781283835969,50.2999017947739, , , , , , , , , , , , , , , , , , , , , , , , , , , , , , , , , , , , , , , , , , , , , , , , , , , , , , , , , , , , ,
60.6186236240115,77.0687214565771,16.4500978325655,-70.1761301744261,-46.5673283470029,-18.2749585553488,-0.825606799471399,-32.4155261839991,12.2168841825439,-68.8436725402943,22.084262895723,46.7594096445713, , , , , , , , , , , , , , , , , , , , , , , , , , , , , , , , , , , , , , , , , , , , , , , , , , , , , , , , , , , , ,
54.8065906386337,70.2798442470796,15.4732536084458,-63.9133372162464,-42.3572601337792,-16.5785725218314,-0.97378461863762,-36.7481572306613,4.87164561423965,-62.5432174428567,19.666668515094,42.8765489277627, , , , , , , , , , , , , , , , , , , , , , , , , , , , , , , , , , , , , , , , , , , , , , , , , , , , , , , , , , , , ,
48.7387649618725,63.0980494194897,14.3592844576171,-57.3180990339587,-38.4088693706243,-15.402782561682,-1.37765835006824,-41.305039390111,-2.63359803438759,-55.9184071906811,17.1897402521277,38.7286669385535, , , , , , , , , , , , , , , , , , , , , , , , , , , , , , , , , , , , , , , , , , , , , , , , , , , , , , , , , , , , ,
42.5754146224898,55.604083648936,13.0286690264461,-51.7303704179757,-34.8381794224299,-15.2364709240657,-2.04488379136772,-46.671392092014,-10.5638558804871,-49.0897491357129,14.7733727980218,34.3163763376911, , , , , , , , , , , , , , , , , , , , , , , , , , , , , , , , , , , , , , , , , , , , , , , , , , , , , , , , , , , , ,
36.0933245464846,47.8778326514104,11.7845081049258,-46.4075702646783,-31.5474672456157,-14.1301804425913,-3.03108106009448,-51.9487644707305,-18.3882479783496,-41.9855785989475,12.1544082207794,29.8311703781682, , , , , , , , , , , , , , , , , , , , , , , , , , , , , , , , , , , , , , , , , , , , , , , , , , , , , , , , , , , , ,
29.4205520849912,39.9972453305538,10.5766932455625,-41.4160791707031,-28.8578590322666,-14.307031787622,-4.29709898332383,-56.9141699681777,-26.7157397192847,-34.7088987077725,9.42192941971437,25.2869692880582, , , , , , , , , , , , , , , , , , , , , , , , , , , , , , , , , , , , , , , , , , , , , , , , , , , , , , , , , , , , ,
23.2734510404069,32.0383223662405,8.76487132583348,-36.8099508090895,-26.8039085396526,-15.415057483775,-6.86598747888455,-63.3844883651466,-34.6200783568287,-27.6558867033237,7.25428985728673,20.401596846037, , , , , , , , , , , , , , , , , , , , , , , , , , , , , , , , , , , , , , , , , , , , , , , , , , , , , , , , , , , , ,
16.3842003747326,24.0758859915822,7.69168561684951,-32.0806388732435,-25.3284211264192,-16.3564747540006,-8.5995560170479,-68.5977799820127,-42.0476059501112,-20.2300431831574,4.34625737894155,15.8837858042159, , , , , , , , , , , , , , , , , , , , , , , , , , , , , , , , , , , , , , , , , , , , , , , , , , , , , , , , , , , , ,
11.0302816038206,16.184720192033,5.15443858821241,-28.2165556510592,-24.4295409989386,-16.6595140937796,-11.1931038752389,-73.9981669514376,-48.6140216162109,-13.6075008979268,2.93792150780409,10.6695793901228, , , , , , , , , , , , , , , , , , , , , , , , , , , , , , , , , , , , , , , , , , , , , , , , , , , , , , , , , , , , ,
4.65035015979833,8.44064682492322,3.79029666512484,-25.0055525362212,-24.0869742177085,-16.7051553893463,-14.8958903695043,-78.1038386900716,-55.0934249215923,-6.54549849236078,0.43002674733675,6.11547174502407, , , , , , , , , , , , , , , , , , , , , , , , , , , , , , , , , , , , , , , , , , , , , , , , , , , , , , , , , , , , ,
0.435852099544119,-0.307303582161039,-0.743155681705205,-21.6148973130772,-24.2661701851277,-19.0488158217168,-17.7256538768492,-82.6790761068196,-60.6982800012601,-0.0642742586915457,0.589503890624665,-0.525229631933081, , , , , , , , , , , , , , , , , , , , , , , , , , , , , , , , , , , , , , , , , , , , , , , , , , , , , , , , , , , , ,
-4.86844449733204,-9.25277029804934,-4.38432580071735,-18.7093058124815,-24.9224126605096,-21.7350491080335,-21.462887765349,-86.7988673510022,-65.1867815470027,7.06060739769068,-0.242059348307341,-6.8185480493833, , , , , , , , , , , , , , , , , , , , , , , , , , , , , , , , , , , , , , , , , , , , , , , , , , , , , , , , , , , , ,
-8.4635275417121,-16.502491802664,-8.03896426095197,-16.2588783254752,-26.0042335693224,-22.2455532425202,-24.0607056737608,-90.8938460563707,-70.0943186900037,12.4830096721881,-0.21228164038006,-12.270728031808, , , , , , , , , , , , , , , , , , , , , , , , , , , , , , , , , , , , , , , , , , , , , , , , , , , , , , , , , , , , ,
-11.982783504634,-26.580575671901,-14.597792167267,-14.2271843831278,-26.0090973439774,-25.3932090023807,-27.8853042957341,-94.1132583340552,-73.5549860723267,19.2816795882675,1.3075043313165,-20.5891839195839, , , , , , , , , , , , , , , , , , , , , , , , , , , , , , , , , , , , , , , , , , , , , , , , , , , , , , , , , , , , ,
-15.610159489057,-33.3931826189771,-17.7830231299202,-12.5734070572809,-27.2428401700757,-27.1451129825865,-29.9582086606574,-96.7401003317505,-76.1897732544719,24.5016710540171,1.08643182043157,-25.5881028744486, , , , , , , , , , , , , , , , , , , , , , , , , , , , , , , , , , , , , , , , , , , , , , , , , , , , , , , , , , , , ,
-16.9131632967418,-41.6888012159594,-24.7756379192177,-11.2542498755486,-27.6015416208332,-27.6448589427096,-33.7852912309884,-99.1914971776493,-79.0277626941644,29.3009822563506,3.93123731123795,-33.2322195675885, , , , , , , , , , , , , , , , , , , , , , , , , , , , , , , , , , , , , , , , , , , , , , , , , , , , , , , , , , , , ,
-19.6328252439733,-50.4150760558662,-30.782250811893,-10.2254676431667,-27.6582311281437,-28.1231154217358,-36.3843745675072,-101.234881051376,-80.6690936168167,35.0239506499197,5.57471278395983,-40.5986634338795, , , , , , , , , , , , , , , , , , , , , , , , , , , , , , , , , , , , , , , , , , , , , , , , , , , , , , , , , , , , ,
-21.8064349434117,-54.2925087278136,-32.4860737844019,-9.44292494366163,-27.6478257014126,-28.5579742625915,-38.8601582025228,-103.851258387943,-82.7708545215299,38.0494718356127,5.33981942049509,-43.3892912561077, , , , , , , , , , , , , , , , , , , , , , , , , , , , , , , , , , , , , , , , , , , , , , , , , , , , , , , , , , , , ,
-22.2658297348623,-57.4533735837048,-35.1875438488425,-8.86318075378266,-27.5389835540559,-28.9330172260021,-41.2225664425259,-104.970564679638,-83.7694441736808,39.8596016592836,6.46085705699009,-46.3204587162736, , , , , , , , , , , , , , , , , , , , , , , , , , , , , , , , , , , , , , , , , , , , , , , , , , , , , , , , , , , , ,
-24.3207674748184,-59.9000164771395,-35.5792490023212,-8.44370505599181,-27.3081416425204,-29.2366214315892,-42.8999497871564,-105.816293056354,-86.8369122159118,42.1103919759789,5.62924076375144,-47.7396327397303, , , , , , , , , , , , , , , , , , , , , , , , , , , , , , , , , , , , , , , , , , , , , , , , , , , , , , , , , , , , ,
-26.0502652529229,-61.6583976917667,-35.6081324388439,-8.14290463230713,-26.9384431980052,-29.4610305353398,-45.2236510021682,-106.736778637893,-88.6497292878591,43.8543314723448,4.77893359296051,-48.6332650653053, , , , , , , , , , , , , , , , , , , , , , , , , , , , , , , , , , , , , , , , , , , , , , , , , , , , , , , , , , , , ,
-26.2139570938926,-62.7781882208303,-36.5642311269378,-7.92015077433518,-26.4186977280474,-29.6013958822348,-46.7989613351526,-107.188895870221,-89.7533475098187,44.4960726573614,5.17513701652261,-49.671209673884, , , , , , , , , , , , , , , , , , , , , , , , , , , , , , , , , , , , , , , , , , , , , , , , , , , , , , , , , , , , ,
-28.3327485248844,-63.3314615347561,-34.9987130098718,-7.73597058383393,-25.7425439186011,-29.6549608750721,-47.3445598349935,-107.326862646806,-92.2324560951075,45.8321050298202,3.33298224249371,-49.1650872723139, , , , , , , , , , , , , , , , , , , , , , , , , , , , , , , , , , , , , , , , , , , , , , , , , , , , , , , , , , , , ,
-30.2158250849506,-63.4100675537942,-33.1942424688436,-7.55250569851352,-24.907890340419,-29.6204899871768,-47.4847136862813,-107.47440710301,-93.9368343213967,46.8129463193724,1.4892086919465,-48.3021550113188, , , , , , , , , , , , , , , , , , , , , , , , , , , , , , , , , , , , , , , , , , , , , , , , , , , , , , , , , , , , ,
-30.7730481525783,-63.1218076624167,-32.3487595098385,-7.33427649406473,-23.9166411878539,-29.4979623882062,-47.4239845261197,-110.887471023099,-94.7175473483996,46.9474279074975,0.787855678630119,-47.7352835861276, , , , , , , , , , , , , , , , , , , , , , , , , , , , , , , , , , , , , , , , , , , , , , , , , , , , , , , , , , , , ,
-31.1817987945284,-62.5855403975991,-31.4037416030707,-6.36338579134075,-21.3280611949366,-28.0301428849808,-47.1747536702949,-111.060764443681,-97.1420522182824,46.8836695960638,0.11097140427115,-46.9946410003349, , , , , , , , , , , , , , , , , , , , , , , , , , , , , , , , , , , , , , , , , , , , , , , , , , , , , , , , , , , , ,
-34.0483266462772,-61.9253884902353,-27.8770618439582,-5.43503330748126,-20.0232994604382,-27.7360607048312,-46.7536534591354,-113.622776398289,-99.6109480948917,47.9868575682562,-3.08563240115946,-44.9012251670967, , , , , , , , , , , , , , , , , , , , , , , , , , , , , , , , , , , , , , , , , , , , , , , , , , , , , , , , , , , , ,
-37.1307027329863,-61.2643111332618,-24.1336084002755,-4.74281378411001,-17.3714731430412,-27.3611134078426,-46.1815036799146,-113.760590178948,-100.628883694287,49.1975069331241,-6.49854716635538,-42.6989597667686, , , , , , , , , , , , , , , , , , , , , , , , , , , , , , , , , , , , , , , , , , , , , , , , , , , , , , , , , , , , ,
-38.7920849140674,-60.7174248851668,-21.9253399710995,-3.30161119084129,-14.8248496350213,-26.0168309415021,-44.2740084150457,-113.633598436474,-102.764223661857,49.7547548996171,-8.43337247148397,-41.3213824281331, , , , , , , , , , , , , , , , , , , , , , , , , , , , , , , , , , , , , , , , , , , , , , , , , , , , , , , , , , , , ,
-41.5921138234112,-60.3855546984845,-18.7934408750733,-1.647177875093,-12.3879531133767,-23.6986023472005,-41.9299755621553,-113.540338928884,-105.57307190238,50.9888342609478,-11.3993364741689,-39.5894977867789, , , , , , , , , , , , , , , , , , , , , , , , , , , , , , , , , , , , , , , , , , , , , , , , , , , , , , , , , , , , ,
-45.1352520490404,-60.349539849549,-15.2142878005086,0.222510825777142,-10.0658296104947,-23.1210209238774,-40.3749493545179,-113.498798790565,-108.49534627566,52.7423959492947,-14.9604821242659,-37.7819138250288, , , , , , , , , , , , , , , , , , , , , , , , , , , , , , , , , , , , , , , , , , , , , , , , , , , , , , , , , , , , ,
-48.3402261365938,-60.665798387353,-12.3255722507592,2.29750188620483,-7.86471691178883,-22.49540218572,-38.3021288743275,-113.514337156305,-110.190764476865,54.5030122619734,-18.0073269429173,-36.495685319056, , , , , , , , , , , , , , , , , , , , , , , , , , , , , , , , , , , , , , , , , , , , , , , , , , , , , , , , , , , , ,
-50.1655763446009,-61.3635671010098,-11.1979907564089,4.55569159163998,-5.79172702590972,-19.2719912732821,-35.257688139261,-113.588273979768,-112.688545188112,55.7645717228053,-19.483792794096,-36.2807789287093, , , , , , , , , , , , , , , , , , , , , , , , , , , , , , , , , , , , , , , , , , , , , , , , , , , , , , , , , , , , ,
-53.6941212087828,-62.4440797835164,-8.74995857473364,6.96342489284996,-3.85368404385644,-16.3397950739717,-32.2602288220355,-113.718066243084,-115.908497369063,58.0691004961496,-22.4720813170246,-35.597019179125, , , , , , , , , , , , , , , , , , , , , , , , , , , , , , , , , , , , , , , , , , , , , , , , , , , , , , , , , , , , ,
-57.0829732234141,-63.8817365734837,-6.79876335006968,9.47707558484468,-2.05537970094087,-15.4901326764794,-31.1964451296924,-113.889076831787,-119.183797441044,60.4823548984489,-25.1421049366722,-35.3402499617767, , , , , , , , , , , , , , , , , , , , , , , , , , , , , , , , , , , , , , , , , , , , , , , , , , , , , , , , , , , , ,
-58.2565571090028,-65.62709631405,-7.37053920504722,12.0456471137122,-0.397570477636914,-12.5715257994139,-27.9257145367364,-113.807022676942,-121.931111465827,61.9418267115264,-25.4430089519778,-36.4988177595486, , , , , , , , , , , , , , , , , , , , , , , , , , , , , , , , , , , , , , , , , , , , , , , , , , , , , , , , , , , , ,
-59.2390887066353,-67.611350776272,-8.37226206963673,14.6142186425798,1.12494552370084,-9.84750851598404,-25.5317341431582,-110.983366571293,-123.750466987266,63.4252197414536,-25.4334133184993,-37.9918064229543, , , , , , , , , , , , , , , , , , , , , , , , , , , , , , , , , , , , , , , , , , , , , , , , , , , , , , , , , , , , ,
-60.0001653016525,-69.7518401171357,-9.75167481548327,15.8661066394727,2.52482794242224,-7.32234606500243,-24.1238035506462,-107.706860568833,-126.99046309449,64.8760027093941,-25.1242452430846,-39.7517574663094, , , , , , , , , , , , , , , , , , , , , , , , , , , , , , , , , , , , , , , , , , , , , , , , , , , , , , , , , , , , ,
-56.1655735846084,-71.9581266381282,-15.7925530535199,17.066325095066,3.4906636065,-4.98955045896049,-21.0463827702731,-107.760164460204,-130.165282412843,64.0618501113683,-20.1865102655443,-43.875339845824, , , , , , , , , , , , , , , , , , , , , , , , , , , , , , , , , , , , , , , , , , , , , , , , , , , , , , , , , , , , ,
-56.253212213417,-74.1381382214662,-17.8849260080492,18.1991448020486,4.2982480177767,-3.41859844485669,-20.6050245331689,-107.638637838278,-133.242072733126,65.1956752174416,-19.1841431026839,-46.0115321147576, , , , , , , , , , , , , , , , , , , , , , , , , , , , , , , , , , , , , , , , , , , , , , , , , , , , , , , , , , , , ,
-50.7220170001425,-76.2039257804611,-25.4819087803187,19.2547817488788,4.95745379747064,-2.16176432336352,-19.2323689866907,-107.273280565945,-127.186183925843,63.4629713903018,-12.6200541099119,-50.8429172803898, , , , , , , , , , , , , , , , , , , , , , , , , , , , , , , , , , , , , , , , , , , , , , , , , , , , , , , , , , , , ,
-45.3943539426738,-70.8608458986681,-25.4664919559944,20.2289811908473,5.48491359280468,-0.145943777442318,-19.0194517529041,-107.140774669027,-123.497597537329,58.127599920671,-9.96393099333973,-48.1636689273312, , , , , , , , , , , , , , , , , , , , , , , , , , , , , , , , , , , , , , , , , , , , , , , , , , , , , , , , , , , , ,
-44.7464858638361,-67.3719972627631,-22.625511398927,21.1221608907292,5.90228221602707,0.565853293393269,-18.8982957306632,-106.916907209305,-121.411365433117,56.0592415632996,-11.0604872324546,-44.998754330845, , , , , , , , , , , , , , , , , , , , , , , , , , , , , , , , , , , , , , , , , , , , , , , , , , , , , , , , , , , , ,
-39.995672370291,-66.9475920435231,-26.9519196732321,21.9384365944919,6.234536447025,1.31781427647319,-18.8676188521649,-105.403493612496,-115.379492436543,53.471632206907,-6.52187634852944,-46.9497558583776, , , , , , , , , , , , , , , , , , , , , , , , , , , , , , , , , , , , , , , , , , , , , , , , , , , , , , , , , , , , ,
-35.3502422249643,-63.6324151132218,-28.2821728882575,22.6848067423613,6.50861687453005,2.12467682378132,-18.8376529296274,-104.695853263931,-109.746545602949,49.491328669093,-3.53403466835339,-45.9572940007396, , , , , , , , , , , , , , , , , , , , , , , , , , , , , , , , , , , , , , , , , , , , , , , , , , , , , , , , , , , , ,
-31.260689013903,-64.6542858849963,-33.3935968710933,23.3706470717749,6.75254092750948,3.00197732104345,-18.7740991554422,-103.36375136436,-104.55966786569,47.9574874494496,1.06645392859512,-49.0239413780447, , , , , , , , , , , , , , , , , , , , , , , , , , , , , , , , , , , , , , , , , , , , , , , , , , , , , , , , , , , , ,
-27.7806560509769,-64.9097655673977,-37.1291095164208,24.0075306174616,6.99492838487607,3.96611669145784,-18.6409323878554,-102.390974826564,-99.8517671552099,46.3452108091873,4.67422673272194,-51.0194375419092, , , , , , , , , , , , , , , , , , , , , , , , , , , , , , , , , , , , , , , , , , , , , , , , , , , , , , , , , , , , ,
-24.9332905235813,-65.1961713970045,-40.2628808734232,24.6093032263979,7.26476948810921,5.03437552104685,-18.4015758628131,-100.835787294662,-98.3694403598233,45.0647309602929,7.66479517492091,-52.7295261352138, , , , , , , , , , , , , , , , , , , , , , , , , , , , , , , , , , , , , , , , , , , , , , , , , , , , , , , , , , , , ,
-22.7121661244915,-64.8157723435454,-42.1036062190539,25.1923150014741,7.59125782180081,6.22468288295351,-18.0785054147104,-99.5460564506377,-97.6488045833561,43.7639692340184,9.69572004728122,-53.4596892812996, , , , , , , , , , , , , , , , , , , , , , , , , , , , , , , , , , , , , , , , , , , , , , , , , , , , , , , , , , , , ,
-21.0841737041769,-65.8659016584534,-44.7817279542765,25.7756929347761,8.00356577201683,7.55502394082884,-17.5218925259321,-97.9370843912348,-96.1256410338963,43.4750376813152,11.8487771250498,-55.3238148063649, , , , , , , , , , , , , , , , , , , , , , , , , , , , , , , , , , , , , , , , , , , , , , , , , , , , , , , , , , , , ,
-19.9937894356941,-65.0245280173646,-45.0307385816705,26.3815094159786,8.5304984695091,9.0424757490316,-16.7606258156902,-96.1824917804286,-95.2860504996312,42.5091587265294,12.5184745729882,-55.0276332995176, , , , , , , , , , , , , , , , , , , , , , , , , , , , , , , , , , , , , , , , , , , , , , , , , , , , , , , , , , , , ,
-19.517392741334,-64.4534566300084,-44.9360638886744,27.0346781596061,9.19998361843318,10.7019437644091,-15.8609612808398,-94.7837931516109,-92.9972064075472,41.9854246856712,12.7093355736702,-54.6947602593413, , , , , , , , , , , , , , , , , , , , , , , , , , , , , , , , , , , , , , , , , , , , , , , , , , , , , , , , , , , , ,
-19.7776380715067,-63.5558847481774,-43.7782466766708,27.7624297847608,10.038339080715,12.5447068302569,-14.6264199206923,-92.2417612550327,-92.1160214869353,41.666761409842,12.0003043025821,-53.6670657124241, , , , , , , , , , , , , , , , , , , , , , , , , , , , , , , , , , , , , , , , , , , , , , , , , , , , , , , , , , , , ,
-19.8125882886966,-62.469027578473,-42.6564392897765,28.5932712942952,11.0692342665658,14.5768689929941,-13.1387198019413,-90.7391772396294,-90.783952225457,41.1408079335848,11.42192550054,-52.5627334341247, , , , , , , , , , , , , , , , , , , , , , , , , , , , , , , , , , , , , , , , , , , , , , , , , , , , , , , , , , , , ,
-19.9356180835725,-61.4222037109617,-41.4865856273893,29.5553700443917,12.3122532898567,16.7977881122388,-12.5655741968414,-89.2667038552036,-89.245847554226,40.6789108972671,10.7754837719084,-51.4543946691754, , , , , , , , , , , , , , , , , , , , , , , , , , , , , , , , , , , , , , , , , , , , , , , , , , , , , , , , , , , , ,
-20.7247729748662,-60.4693301521992,-39.744557177333,30.6743145399022,13.7809953186792,19.1985345667342,-10.5848566832967,-88.4221144637107,-88.6011096911471,40.5970515635327,9.5098921012334,-50.1069436647661, , , , , , , , , , , , , , , , , , , , , , , , , , , , , , , , , , , , , , , , , , , , , , , , , , , , , , , , , , , , ,
-20.9891643258391,-59.656722379085,-38.667558053246,31.9702454826658,15.4807278081497,21.7604525992841,-8.38474223573688,-87.5429308469861,-88.0128836063226,40.322943352462,8.83919686370349,-49.1621402161655, , , , , , , , , , , , , , , , , , , , , , , , , , , , , , , , , , , , , , , , , , , , , , , , , , , , , , , , , , , , ,
-21.2994950126805,-59.0214414648541,-37.7219464521737,33.4544746995791,17.4057493750555,24.4539566695172,-6.13232007217651,-86.6305772770915,-88.1511115024401,40.1604682387673,8.21122571974662,-48.3716939585139, , , , , , , , , , , , , , , , , , , , , , , , , , , , , , , , , , , , , , , , , , , , , , , , , , , , , , , , , , , , ,
-21.7456357088796,-58.5900189825268,-36.8443832736473,35.1258988585954,19.5367863399337,27.2377691786957,-3.59981089534084,-85.6848418221471,-87.6628369206649,40.1678273457032,7.54937378238385,-47.717201128087, , , , , , , , , , , , , , , , , , , , , , , , , , , , , , , , , , , , , , , , , , , , , , , , , , , , , , , , , , , , ,
-22.0805582243969,-58.3774954760212,-36.2969372516243,36.9676880472044,21.8388659117989,30.0588503375329,-0.97378461863762,-84.7038396971802,-87.2042778912795,40.2290268502091,7.1081895136137,-47.3372163638227, , , , , , , , , , , , , , , , , , , , , , , , , , , , , , , , , , , , , , , , , , , , , , , , , , , , , , , , , , , , ,
-22.3876582972037,-58.3867336234242,-35.9990753262206,38.9448086246704,24.2601223235394,32.8532550504706,0.862579847402929,-83.6839683320806,-86.7534997328425,40.387195960314,6.80570851450845,-47.1929044748224, , , , , , , , , , , , , , , , , , , , , , , , , , , , , , , , , , , , , , , , , , , , , , , , , , , , , , , , , , , , ,
-22.7763731211456,-58.6079951564457,-35.8316220353002,41.0028970450287,26.7319011586434,35.5480710926906,3.48098391913847,-83.2853245428962,-86.2831949620103,40.6921841387956,6.52762445707732,-47.2198085958729, , , , , , , , , , , , , , , , , , , , , , , , , , , , , , , , , , , , , , , , , , , , , , , , , , , , , , , , , , , , ,
-22.9363691360257,-59.0188018408651,-36.0824327048394,41.782447889232,29.170374403236,38.0644650611718,6.01254642988421,-82.1697367619662,-85.7617591679261,40.9775854884454,6.57303178440683,-47.5506172728522, , , , , , , , , , , , , , , , , , , , , , , , , , , , , , , , , , , , , , , , , , , , , , , , , , , , , , , , , , , , ,
-22.9761436656054,-59.5841537262882,-36.6080100606828,42.4848263585139,31.4797155549215,40.3217236650177,8.37977084610863,-80.9936976344619,-85.1546746572298,41.2801486959468,6.81593319753871,-48.0960818934855, , , , , , , , , , , , , , , , , , , , , , , , , , , , , , , , , , , , , , , , , , , , , , , , , , , , , , , , , , , , ,
-24.1558009334103,-60.2572505215493,-36.101449588139,43.0349967675688,33.5567570392516,42.2420758872438,9.00865512577413,-80.2616486334226,-84.4262877874969,42.2065257274798,5.97282432736436,-48.1793500548441, , , , , , , , , , , , , , , , , , , , , , , , , , , , , , , , , , , , , , , , , , , , , , , , , , , , , , , , , , , , ,
-23.8726262770467,-60.9809132146906,-37.1082869376439,43.3478251657264,35.2969900147544,43.7560512293126,10.8725393323612,-78.9324975483844,-83.7118896936764,42.4267697458686,6.61783033029861,-49.0446000761672, , , , , , , , , , , , , , , , , , , , , , , , , , , , , , , , , , , , , , , , , , , , , , , , , , , , , , , , , , , , ,
-23.3975400139907,-61.6898823124312,-38.2923422984405,43.3348649358393,36.3276755626864,44.8081618241823,12.1073997480876,-77.5102672621561,-82.6413347156188,42.543711163211,7.44740114222487,-49.9911123054358, , , , , , , , , , , , , , , , , , , , , , , , , , , , , , , , , , , , , , , , , , , , , , , , , , , , , , , , , , , , ,
-22.8712346366265,-62.3140693430737,-39.4428347064473,42.9131250166777,36.8684609018402,45.3627397483587,13.3164217746835,-76.2089189506699,-81.3613185980685,42.5926519898501,8.28580003491042,-50.8784520247605, , , , , , , , , , , , , , , , , , , , , , , , , , , , , , , , , , , , , , , , , , , , , , , , , , , , , , , , , , , , ,
-21.9966012471146,-62.7827083297421,-40.7861070826276,42.0152636489157,36.8292155133619,45.4097603108522,14.1858225334586,-74.5785641093189,-79.954625934461,42.3896547884284,9.39475291775649,-51.7844077061848, , , , , , , , , , , , , , , , , , , , , , , , , , , , , , , , , , , , , , , , , , , , , , , , , , , , , , , , , , , , ,
-20.9394103819732,-63.0292530251635,-42.0898426431904,40.6003766510855,36.1519505136405,43.6400786436193,13.8608963743457,-72.8445787552987,-78.2361524149123,41.9843317035683,10.5752161306086,-52.5595478341769, , , , , , , , , , , , , , , , , , , , , , , , , , , , , , , , , , , , , , , , , , , , , , , , , , , , , , , , , , , , ,
-19.7310319419015,-62.9968194225311,-43.2657874806296,38.6643879894539,34.8203162386615,41.2843401481878,14.1421158615615,-72.8445787552987,-76.8256672168689,41.3639256822163,11.767377769364,-53.1313034515803, , , , , , , , , , , , , , , , , , , , , , , , , , , , , , , , , , , , , , , , , , , , , , , , , , , , , , , , , , , , ,
-18.4192690966255,-62.6439708333648,-44.2247017367394,36.6455481393285,32.8683816040781,38.4252515624325,14.2262086140893,-70.9550036620546,-74.7695993067316,40.5316199649952,12.9027163200569,-53.434336285052, , , , , , , , , , , , , , , , , , , , , , , , , , , , , , , , , , , , , , , , , , , , , , , , , , , , , , , , , , , , ,
-17.0686610385691,-61.9506557012025,-44.8819946626334,34.6835011635917,30.3879731239235,35.1917871164169,13.84716703951,-69.043844799027,-72.6464029501839,39.5096583698858,13.9066668120322,-53.4163251819179, , , , , , , , , , , , , , , , , , , , , , , , , , , , , , , , , , , , , , , , , , , , , , , , , , , , , , , , , , , , ,
-15.7599280634468,-60.9241028500286,-45.1641747865819,32.2852363169279,27.5337788640991,31.7611249437589,13.8581632564601,-67.9106903162276,-70.5977092183944,38.3420154567377,14.7021233615676,-53.0441388183052, , , , , , , , , , , , , , , , , , , , , , , , , , , , , , , , , , , , , , , , , , , , , , , , , , , , , , , , , , , , ,
-14.58851490035,-59.6044268600285,-45.0159119596786,30.0211910872027,24.5254937164215,28.3581180347843,12.6490263180526,-66.1709820607791,-68.7927053966794,37.0964708801892,15.2136985296643,-52.3101694098535, , , , , , , , , , , , , , , , , , , , , , , , , , , , , , , , , , , , , , , , , , , , , , , , , , , , , , , , , , , , ,
-13.6621925765576,-58.0695894536226,-44.407396877065,27.7724890558824,21.7178404138913,25.2519945299635,13.1523406092922,-64.6747144001762,-67.2632333947313,35.8658910150901,15.3726021502537,-51.2384931653438, , , , , , , , , , , , , , , , , , , , , , , , , , , , , , , , , , , , , , , , , , , , , , , , , , , , , , , , , , , , ,
-13.0976942808039,-56.4582623277171,-43.3605680469132,26.0600172459601,21.2130507643874,25.3121236477665,14.1443701502171,-64.7178391675367,-66.3130116450731,34.7779783042605,15.1314368830547,-49.9094151873151, , , , , , , , , , , , , , , , , , , , , , , , , , , , , , , , , , , , , , , , , , , , , , , , , , , , , , , , , , , , ,
-14.6736859870514,-54.8957931398439,-40.2221071527925,25.392566699306,21.4377880872682,26.7191134581553,15.471992103498,-64.1641386542117,-67.366843821471,34.7847395634477,12.7742105828706,-47.5589501463182, , , , , , , , , , , , , , , , , , , , , , , , , , , , , , , , , , , , , , , , , , , , , , , , , , , , , , , , , , , , ,
-15.1966561537764,-54.0293168892219,-38.8326607354455,26.5263338578226,22.8886038508844,30.1078769064915,17.7477054090991,-64.3649730459885,-68.3366554677229,34.6129865214992,11.8180022908345,-46.4309888123337, , , , , , , , , , , , , , , , , , , , , , , , , , , , , , , , , , , , , , , , , , , , , , , , , , , , , , , , , , , , ,
-16.4388293944218,-53.263742262099,-36.8249128676773,28.6638554095176,26.3150334864949,35.4226915351837,21.130734114973,-65.6824101349794,-70.6899734786255,34.8512858282604,10.1930417366278,-45.0443275648881, , , , , , , , , , , , , , , , , , , , , , , , , , , , , , , , , , , , , , , , , , , , , , , , , , , , , , , , , , , , ,
-18.5423562516595,-53.3011467539822,-34.7587905023228,32.8529870424019,32.9992965095858,41.6109206927355,25.4155023162443,-68.0691841350948,-75.0704328057455,35.9217515028208,8.10821712533165,-44.0299686281524, , , , , , , , , , , , , , , , , , , , , , , , , , , , , , , , , , , , , , , , , , , , , , , , , , , , , , , , , , , , ,
-21.5132679763429,-54.4457145578205,-32.9324465814776,40.3357135224236,41.681718723485,50.0244502323478,30.9484602694925,-71.9091785868647,-81.0634015384659,37.9794912670817,5.70958930256732,-43.689080569649, , , , , , , , , , , , , , , , , , , , , , , , , , , , , , , , , , , , , , , , , , , , , , , , , , , , , , , , , , , , ,
-25.450454401703,-57.0107068457519,-31.5602524440489,49.6237143061155,53.5690732878705,61.0150514583649,37.6186820276209,-78.3737590558695,-89.2794799088791,41.2305806237274,3.05489902117297,-44.2854796449003, , , , , , , , , , , , , , , , , , , , , , , , , , , , , , , , , , , , , , , , , , , , , , , , , , , , , , , , , , , , ,
-31.6432394438088,-61.3007441559581,-29.6575047121494,61.8378017709051,69.4419203088437,74.4116362012202,43.7970363265074,-85.807069076125,-100.042830522116,46.4719917998835,-0.992867365829729,-45.4791244340537, , , , , , , , , , , , , , , , , , , , , , , , , , , , , , , , , , , , , , , , , , , , , , , , , , , , , , , , , , , , ,
-38.0164372139869,-67.5912213955229,-29.5747841815361,77.4294406374822,88.7291017640765,90.4297489189597,52.6476378343643,-95.3214642609987,-113.297938199361,52.8038293047549,-4.22082651622542,-48.5830027885294, , , , , , , , , , , , , , , , , , , , , , , , , , , , , , , , , , , , , , , , , , , , , , , , , , , , , , , , , , , , ,
-44.8597993420278,-76.1058466918228,-31.2460473497951,96.4679501305189,111.636465107666,109.337647055089,62.1618731698384,-107.727636960251,-129.227151104467,60.4828230169253,-6.80687599611635,-53.6759470208089, , , , , , , , , , , , , , , , , , , , , , , , , , , , , , , , , , , , , , , , , , , , , , , , , , , , , , , , , , , , ,
-52.5240895784827,-86.9935860668187,-34.4694964883361,117.857530123159,138.323347047852,130.821203584801,72.7886180105479,-121.687736903175,-148.652142543469,69.7588378226507,-9.02729654507327,-60.7315412775774, , , , , , , , , , , , , , , , , , , , , , , , , , , , , , , , , , , , , , , , , , , , , , , , , , , , , , , , , , , , ,
-61.4631445254878,-100.30653784845,-38.8433933229624,142.045368280257,169.15353884938,154.244955683304,84.0739314357165,-137.980906008606,-169.746652262503,80.884841186969,-11.3098756012627,-69.5749655857062, , , , , , , , , , , , , , , , , , , , , , , , , , , , , , , , , , , , , , , , , , , , , , , , , , , , , , , , , , , , ,
-70.2154848614441,-115.980423459128,-45.7649385976837,169.739172426422,202.769409037322,179.703333302041,95.7042348566292,-156.145595141164,-193.086783507148,93.0979541602859,-12.2252731318802,-80.8726810284057, , , , , , , , , , , , , , , , , , , , , , , , , , , , , , , , , , , , , , , , , , , , , , , , , , , , , , , , , , , , ,
-79.109828734471,-133.819420600497,-54.7095918660265,198.346507163568,239.254570928149,208.421156039413,107.712700278459,-176.010567677697,-218.388744950082,106.464624667484,-12.2001184342223,-94.264506233262, , , , , , , , , , , , , , , , , , , , , , , , , , , , , , , , , , , , , , , , , , , , , , , , , , , , , , , , , , , , ,
-88.9353255190465,-153.486969860608,-64.5516443415616,228.31492225337,278.44592844987,236.865190416879,120.030806983172,-197.801479950148,-244.842699587259,121.211147689827,-12.1918405887425,-109.019307101085, , , , , , , , , , , , , , , , , , , , , , , , , , , , , , , , , , , , , , , , , , , , , , , , , , , , , , , , , , , , ,
-96.9909522125057,-174.503975250324,-77.5130230378183,258.994139467164,318.825001792259,266.166272486217,132.493376249287,-219.95002724517,-271.863783177809,135.747463731415,-9.73896458734373,-126.008499144071, , , , , , , , , , , , , , , , , , , , , , , , , , , , , , , , , , , , , , , , , , , , , , , , , , , , , , , , , , , , ,
-103.947139444302,-196.255496289952,-92.3083568456504,289.661507497446,360.010884981422,296.36132897711,145.107193732555,-241.353967215731,-299.591993550196,150.101317867127,-5.81939129932562,-144.281926567801, , , , , , , , , , , , , , , , , , , , , , , , , , , , , , , , , , , , , , , , , , , , , , , , , , , , , , , , , , , , ,
-111.103962220954,-218.794833458523,-107.690871237568,319.83298411634,401.461077834008,327.563220558003,158.008109248457,-261.46303865744,-325.023267045878,164.949397839739,-1.70654549169294,-163.242852348046, , , , , , , , , , , , , , , , , , , , , , , , , , , , , , , , , , , , , , , , , , , , , , , , , , , , , , , , , , , , ,
-114.264429368789,-239.715456630505,-125.451027261716,347.173427137001,441.604618633067,356.755908488651,170.699904630475,-279.73918110558,-348.026214204062,176.989942999647,5.59329894646323,-182.58324194611, , , , , , , , , , , , , , , , , , , , , , , , , , , , , , , , , , , , , , , , , , , , , , , , , , , , , , , , , , , , ,
-114.671742362137,-258.914048318804,-144.242305956667,371.547472664221,479.8295853711,385.103111732736,184.994028011119,-293.400272386823,-367.602555392252,186.79289534047,14.7852817972651,-201.578177137735, , , , , , , , , , , , , , , , , , , , , , , , , , , , , , , , , , , , , , , , , , , , , , , , , , , , , , , , , , , , ,
-111.75936287764,-277.207639637435,-165.448276759796,392.681468397924,515.398463076549,413.134481432608,199.269882288402,-301.563020404885,-381.939901757048,194.483501257537,26.844456941078,-221.327958198615, , , , , , , , , , , , , , , , , , , , , , , , , , , , , , , , , , , , , , , , , , , , , , , , , , , , , , , , , , , , ,
-104.934796401379,-290.248823836867,-185.314027435488,408.732078191378,547.032569995748,439.386984288734,216.918843251727,-302.999379396629,-389.902666717004,197.591810119123,40.1896155170549,-237.781425636178, , , , , , , , , , , , , , , , , , , , , , , , , , , , , , , , , , , , , , , , , , , , , , , , , , , , , , , , , , , , ,
-93.6840930465791,-298.95174205169,-205.267649005111,418.958129983369,574.091758296821,463.553500841178,237.259489111632,-294.977327694121,-392.153496075736,196.317917549134,55.7917779792657,-252.1096955284, , , , , , , , , , , , , , , , , , , , , , , , , , , , , , , , , , , , , , , , , , , , , , , , , , , , , , , , , , , , ,
-79.0819262220331,-303.038372048753,-223.95644582672,422.710879159576,595.9032264358,486.076967285316,260.017074668059,-276.155860804516,-383.739407475946,191.060149135393,72.4372598023433,-263.497408937736, , , , , , , , , , , , , , , , , , , , , , , , , , , , , , , , , , , , , , , , , , , , , , , , , , , , , , , , , , , , ,
-57.6487466168068,-301.143014848487,-243.494268231681,419.572078210196,611.660671291846,506.742207433902,288.069463506365,-245.429667050564,-364.365536363807,179.395880732647,92.9227608074369,-272.318641540084, , , , , , , , , , , , , , , , , , , , , , , , , , , , , , , , , , , , , , , , , , , , , , , , , , , , , , , , , , , , ,
-30.9766730197691,-293.35311864038,-262.376445620611,410.260449992042,620.899706476436,525.587321570992,321.115012164013,-199.829992342297,-333.395635355988,162.164895830075,115.699886300421,-277.864782130496, , , , , , , , , , , , , , , , , , , , , , , , , , , , , , , , , , , , , , , , , , , , , , , , , , , , , , , , , , , , ,
1.7710109873087,-279.647705575505,-281.418716562814,392.316889907724,623.436418380904,543.01424027155,358.692697880757,-138.602685913434,-291.382069368622,138.938347294098,141.594863775061,-280.533211069159, , , , , , , , , , , , , , , , , , , , , , , , , , , , , , , , , , , , , , , , , , , , , , , , , , , , , , , , , , , , ,
40.2786626349863,-263.166751558411,-303.445414193397,366.585944718748,618.476355679113,558.102913028061,403.448520701767,-61.2554553956503,-234.507292161473,111.444044461712,171.862038414192,-283.306082875904, , , , , , , , , , , , , , , , , , , , , , , , , , , , , , , , , , , , , , , , , , , , , , , , , , , , , , , , , , , , ,
82.6981439081672,-238.523679948019,-321.221823856186,333.251582969568,606.066293962441,571.177175156137,454.487968243769,34.0878880452269,-163.855456936064,77.9127680199258,201.959983882177,-279.872751902102, , , , , , , , , , , , , , , , , , , , , , , , , , , , , , , , , , , , , , , , , , , , , , , , , , , , , , , , , , , , ,
132.114264357969,-208.555438863764,-340.669703221732,293.851618200628,586.363463508426,582.689518767208,510.51931939014,146.971954093553,-80.2809367037308,38.2205872528975,236.39198378985,-274.612571042748, , , , , , , , , , , , , , , , , , , , , , , , , , , , , , , , , , , , , , , , , , , , , , , , , , , , , , , , , , , , ,
186.306118510126,-174.539972998965,-360.846091509091,246.248508032686,558.895658373255,591.738609595823,573.39303093168,275.437722727327,17.8562769781598,-5.88307275558024,273.576105009608,-267.693032254028, , , , , , , , , , , , , , , , , , , , , , , , , , , , , , , , , , , , , , , , , , , , , , , , , , , , , , , , , , , , ,
244.286006403058,-138.420899680216,-382.706906083274,192.313688394612,524.017911260586,597.520729730515,641.021203034104,421.334486185078,128.886888229017,-52.9325533614214,313.496456243166,-260.563902881745, , , , , , , , , , , , , , , , , , , , , , , , , , , , , , , , , , , , , , , , , , , , , , , , , , , , , , , , , , , , ,
305.688301959207,-99.3094299497094,-404.997731908916,133.06669223859,482.204862807305,599.506718818958,711.357861909043,581.296221447055,249.249328531695,-103.189436004749,355.343016934061,-252.153580929313, , , , , , , , , , , , , , , , , , , , , , , , , , , , , , , , , , , , , , , , , , , , , , , , , , , , , , , , , , , , ,
369.142283329647,-59.2925682194372,-428.434851549084,69.2668988594329,433.194270522396,597.368095945026,783.992008641556,752.423567229225,382.146895696184,-154.924857555105,398.788567439366,-243.863709884261, , , , , , , , , , , , , , , , , , , , , , , , , , , , , , , , , , , , , , , , , , , , , , , , , , , , , , , , , , , , ,
431.322356184833,-20.7513774769936,-452.073733661827,1.84856918180049,377.630173187819,591.246084493553,856.033829569611,931.958010459905,523.122041649881,-205.28548935392,441.69804492333,-236.41255556941, , , , , , , , , , , , , , , , , , , , , , , , , , , , , , , , , , , , , , , , , , , , , , , , , , , , , , , , , , , , ,
494.950368400003,16.1230405606782,-478.827327839324,-68.7784908754292,315.968582903194,578.510678209859,923.390391548544,1115.61564014272,669.580353187635,-255.53670448034,486.888848119664,-231.352143639323, , , , , , , , , , , , , , , , , , , , , , , , , , , , , , , , , , , , , , , , , , , , , , , , , , , , , , , , , , , , ,
556.466375978837,52.7080509851313,-503.758324993705,-140.902176935209,248.757196747199,559.222751787107,986.353230992372,1298.57049714669,817.458435323687,-304.587213481984,530.112350486271,-225.525137004287, , , , , , , , , , , , , , , , , , , , , , , , , , , , , , , , , , , , , , , , , , , , , , , , , , , , , , , , , , , , ,
614.109911561378,86.5404352789647,-527.569476282413,-213.321987285643,176.644649430333,533.169763247215,1040.43026053103,1476.37273513888,966.535292403899,-350.325173420171,570.839693921895,-220.514520501724, , , , , , , , , , , , , , , , , , , , , , , , , , , , , , , , , , , , , , , , , , , , , , , , , , , , , , , , , , , , ,
665.131805294664,116.544893935767,-548.586911358898,-284.812331819963,100.392893765744,498.496904770608,1081.66086103629,1643.52338416476,1112.00072443633,-390.838349615215,606.859358326781,-216.021008711565, , , , , , , , , , , , , , , , , , , , , , , , , , , , , , , , , , , , , , , , , , , , , , , , , , , , , , , , , , , , ,
711.098297696741,141.611367261663,-569.486930435078,-354.144065274399,20.8913483623262,455.291874626527,1109.27343341168,1794.18833171347,1249.78813447768,-426.354832479202,640.292614065909,-213.937781586708, , , , , , , , , , , , , , , , , , , , , , , , , , , , , , , , , , , , , , , , , , , , , , , , , , , , , , , , , , , , ,
749.026007337197,163.591752192529,-585.434255144668,-420.104741643184,-60.8296587493028,403.710964128998,1119.76984004876,1924.37926288303,1377.8867732197,-456.308879764863,667.230131240932,-210.921251476069, , , , , , , , , , , , , , , , , , , , , , , , , , , , , , , , , , , , , , , , , , , , , , , , , , , , , , , , , , , , ,
777.448326077461,183.672754163839,-593.775571913622,-481.517954280127,-143.589568310678,343.61308716633,1110.93584742377,2028.84600006611,1492.40915165089,-480.56054012065,685.611948995542,-205.051408874892, , , , , , , , , , , , , , , , , , , , , , , , , , , , , , , , , , , , , , , , , , , , , , , , , , , , , , , , , , , , ,
796.032796137905,200.579018595472,-595.453777542433,-537.262381271608,-226.056144116857,274.744465035787,1081.75368766633,2103.26024753382,1588.18291025498,-498.305907366689,695.743286840169,-197.43737947348, , , , , , , , , , , , , , , , , , , , , , , , , , , , , , , , , , , , , , , , , , , , , , , , , , , , , , , , , , , , ,
803.839600637845,214.666370633026,-589.173230004819,-586.291109797296,-306.755188298092,198.533325755606,1031.33715668081,2144.91885603791,1667.12863228585,-509.252985635435,696.506415321332,-187.253429685897, , , , , , , , , , , , , , , , , , , , , , , , , , , , , , , , , , , , , , , , , , , , , , , , , , , , , , , , , , , , ,
798.34397868865,226.323494664304,-572.020484024346,-627.651559196065,-384.093558164478,116.643079344177,959.794500832826,2151.32816661847,1724.95491261078,-512.333736676477,685.182231356498,-172.848494680021, , , , , , , , , , , , , , , , , , , , , , , , , , , , , , , , , , , , , , , , , , , , , , , , , , , , , , , , , , , , ,
783.96667498982,235.917102055404,-548.049572934416,-660.505963143973,-456.39609870074,29.9825541167696,868.067964912171,2121.29812245043,1759.47485683416,-509.941888522612,666.008123962118,-156.066235439506, , , , , , , , , , , , , , , , , , , , , , , , , , , , , , , , , , , , , , , , , , , , , , , , , , , , , , , , , , , , ,
758.861056879755,243.744957867513,-515.116099012243,-684.151935213053,-521.955460354531,-59.0590702841072,757.924606739381,2055.10695866719,1769.79725929013,-501.303007373634,636.988577945999,-135.685570572365, , , , , , , , , , , , , , , , , , , , , , , , , , , , , , , , , , , , , , , , , , , , , , , , , , , , , , , , , , , , ,
721.85398936095,250.001350431638,-471.852638929313,-698.042149484421,-579.092202374347,-148.209988834055,631.901315424713,1953.98675517938,1757.94956778929,-485.927669896294,596.853314145131,-110.925644248837, , , , , , , , , , , , , , , , , , , , , , , , , , , , , , , , , , , , , , , , , , , , , , , , , , , , , , , , , , , , ,
677.63101559292,254.757765124334,-422.873250468586,-701.80172208729,-626.221257456182,-235.029802345658,492.336557427166,1820.23599534948,1722.97400151495,-466.194390358627,550.252133030753,-84.0577426721261, , , , , , , , , , , , , , , , , , , , , , , , , , , , , , , , , , , , , , , , , , , , , , , , , , , , , , , , , , , , ,
625.565537685864,257.959626599195,-367.605911086668,-695.241640751339,-661.91991378144,-317.018778857727,344.158230468832,1657.83566671744,1665.45247347706,-441.76258214253,496.585724386266,-54.8231422437364, , , , , , , , , , , , , , , , , , , , , , , , , , , , , , , , , , , , , , , , , , , , , , , , , , , , , , , , , , , , ,
566.714034684604,259.438273956726,-307.275760727878,-678.366669389986,-684.992076491154,-391.734394679863,191.511218705025,1471.09321601502,1588.26953244588,-413.076154320665,436.994897706241,-23.9187433855762, , , , , , , , , , , , , , , , , , , , , , , , , , , , , , , , , , , , , , , , , , , , , , , , , , , , , , , , , , , , ,
503.370460114237,258.9359479162,-244.434512198038,-651.376549270811,-694.523753028297,-456.907214599375,38.4190319672332,1261.7151672292,1493.13548218055,-381.153204015218,373.902486156137,7.25071785908096, , , , , , , , , , , , , , , , , , , , , , , , , , , , , , , , , , , , , , , , , , , , , , , , , , , , , , , , , , , , ,
436.79295851405,256.140509262945,-180.652449251105,-614.659915473314,-689.925431648892,-510.547986831383,-110.956375075181,1042.52030024622,1381.61692829102,-346.466733888498,308.722703882578,37.74403000592, , , , , , , , , , , , , , , , , , , , , , , , , , , , , , , , , , , , , , , , , , , , , , , , , , , , , , , , , , , , ,
368.584004338156,250.725850585754,-117.858153752402,-568.780985616325,-670.958185963906,-551.038424121254,-252.545462503151,815.978869322397,1259.02688457825,-309.654927461955,243.221079045279,66.4338484166763, , , , , , , , , , , , , , , , , , , , , , , , , , , , , , , , , , , , , , , , , , , , , , , , , , , , , , , , , , , , ,
300.357278244631,242.393507166553,-57.9637710780778,-514.459625599223,-637.741784514711,-577.19958607143,-382.769067527198,587.831029336708,1127.06316173649,-271.375392705592,179.160524661354,92.2148680442378, , , , , , , , , , , , , , , , , , , , , , , , , , , , , , , , , , , , , , , , , , , , , , , , , , , , , , , , , , , , ,
233.532833497053,230.910888383275,-2.62194511377841,-452.545805419328,-590.744604282586,-588.333897864212,-498.722776060204,364.324693011086,989.799831359061,-232.221860940164,118.077389305416,114.144471634748, , , , , , , , , , , , , , , , , , , , , , , , , , , , , , , , , , , , , , , , , , , , , , , , , , , , , , , , , , , , ,
168.117033014587,216.141973096002,48.0249400814152,-383.989751111796,-530.756525208537,-584.239248353458,-598.13081141999,150.624381933044,850.095786565879,-192.129503055294,60.0460464665859,132.083456588709, , , , , , , , , , , , , , , , , , , , , , , , , , , , , , , , , , , , , , , , , , , , , , , , , , , , , , , , , , , , ,
107.716864583247,198.06731695693,90.3504523736836,-309.809319661118,-458.847094468756,-565.195913254373,-678.91318646833,-48.6837460154386,709.89634205759,-152.892090770088,8.68320610478153,144.208884665307, , , , , , , , , , , , , , , , , , , , , , , , , , , , , , , , , , , , , , , , , , , , , , , , , , , , , , , , , , , , ,
50.8983888644068,176.791696449051,125.893307584645,-231.056283665652,-376.312082876667,-531.929011963454,-740.233938219342,-232.494190464662,573.343065897265,-113.845042656729,-37.4974593601189,151.342502016848, , , , , , , , , , , , , , , , , , , , , , , , , , , , , , , , , , , , , , , , , , , , , , , , , , , , , , , , , , , , ,
0.248953565228616,152.539397674161,152.290444108932,-148.783278727496,-284.612127126286,-485.550710525488,-782.904337348396,-392.408667648714,443.571996541233,-76.3941756196947,-76.0207452718518,152.414920891547, , , , , , , , , , , , , , , , , , , , , , , , , , , , , , , , , , , , , , , , , , , , , , , , , , , , , , , , , , , , ,
-44.8888809506229,125.638759175889,170.527640126512,-64.0130895077838,-185.30743867461,-427.487337190366,-805.035907160877,-529.206539418796,321.671902919945,-40.3749391126332,-107.708260538567,148.083199651201, , , , , , , , , , , , , , , , , , , , , , , , , , , , , , , , , , , , , , , , , , , , , , , , , , , , , , , , , , , , ,
-85.283862957752,96.4988615763185,181.78272453407,22.9548999811704,-79.9925358787862,-359.396948493927,-808.541973242897,-642.207849528648,207.169561486609,-5.60749930928326,-133.533293745911,139.140793055195, , , , , , , , , , , , , , , , , , , , , , , , , , , , , , , , , , , , , , , , , , , , , , , , , , , , , , , , , , , , ,
-120.673309990591,65.5820266129726,186.255336603564,110.495605367632,30.097606992536,-283.082773244539,-797.445294476325,-730.75953745028,105.135020369299,27.5456416888094,-153.464323297078,125.918681608268, , , , , , , , , , , , , , , , , , , , , , , , , , , , , , , , , , , , , , , , , , , , , , , , , , , , , , , , , , , , ,
-149.431689125058,33.3758937998546,182.807582924912,198.399368725554,142.932142411842,-200.407564585485,-772.293930368344,-795.958478132109,14.1423462735442,58.0278976626016,-166.119636024985,108.091738362384, , , , , , , , , , , , , , , , , , , , , , , , , , , , , , , , , , , , , , , , , , , , , , , , , , , , , , , , , , , , ,
-173.367529783846,0.368261094634621,173.735790878481,284.468786292451,257.307622950526,-113.213366428386,-732.719772773469,-839.332960949036,-66.3079435518476,86.4996343446059,-173.551660331164,87.0520259865579, , , , , , , , , , , , , , , , , , , , , , , , , , , , , , , , , , , , , , , , , , , , , , , , , , , , , , , , , , , , ,
-193.639702117026,-32.9732208368714,160.666481280155,370.159733871179,372.267558615649,-23.250609218654,-683.195370621457,-862.965122599249,-135.15313244194,113.306461476949,-177.153091698591,63.8466302216418, , , , , , , , , , , , , , , , , , , , , , , , , , , , , , , , , , , , , , , , , , , , , , , , , , , , , , , , , , , , ,
-209.536574366024,-66.39053288614,143.146041479884,453.387111038441,486.909466375412,67.8801943637829,-628.748392728635,-869.382651575315,-193.586572705538,137.963553626082,-176.341307922954,38.3777542968721, , , , , , , , , , , , , , , , , , , , , , , , , , , , , , , , , , , , , , , , , , , , , , , , , , , , , , , , , , , , ,
-222.295347239188,-99.1922097449021,123.103137494286,534.092652310113,599.982202430499,158.771556425706,-570.245068522723,-861.363722544976,-243.068272183041,160.743778492045,-172.699242366737,11.9554638746919, , , , , , , , , , , , , , , , , , , , , , , , , , , , , , , , , , , , , , , , , , , , , , , , , , , , , , , , , , , , ,
-234.103446784073,-131.11968458241,102.983762201663,612.480200612633,710.899439214115,248.235036265804,-504.343277592905,-841.791874561574,-283.864346814252,182.611565683241,-168.543604492868,-14.0679611903735, , , , , , , , , , , , , , , , , , , , , , , , , , , , , , , , , , , , , , , , , , , , , , , , , , , , , , , , , , , , ,
-242.299924676575,-163.327178085849,78.9727465907259,688.892855209477,819.843524804288,335.309128346876,-436.569917880262,-813.518804439035,-316.365404595782,202.813551381212,-160.636335633651,-42.1772157475617, , , , , , , , , , , , , , , , , , , , , , , , , , , , , , , , , , , , , , , , , , , , , , , , , , , , , , , , , , , , ,
-248.983674343606,-193.981872281672,55.0018020619344,762.208903820742,925.885813514293,419.249054058754,-369.82765755589,-779.24978835976,-342.315926842205,221.482773312639,-151.99273820277,-69.4900351098687, , , , , , , , , , , , , , , , , , , , , , , , , , , , , , , , , , , , , , , , , , , , , , , , , , , , , , , , , , , , ,
-256.797499848504,-222.873520885851,33.9239789626536,832.728955615468,1028.45054678014,499.499876606226,-310.528390297726,-742.318313472349,-363.924289026708,239.835510367178,-145.360739405579,-94.4747709615986, , , , , , , , , , , , , , , , , , , , , , , , , , , , , , , , , , , , , , , , , , , , , , , , , , , , , , , , , , , , ,
-261.688405762152,-249.884590769609,11.803814992543,900.559762686126,1128.5953671585,575.65592317851,-249.113617972156,-703.260463179556,-379.907963786877,255.786498265881,-136.746110377348,-119.040387888533, , , , , , , , , , , , , , , , , , , , , , , , , , , , , , , , , , , , , , , , , , , , , , , , , , , , , , , , , , , , ,
-266.170939660224,-274.699815066676,-8.52887540645209,966.173867578264,1224.62177451157,648.559325908585,-192.882785726621,-664.789252101961,-393.174017415038,270.43537736345,-128.821032126886,-141.614345236564, , , , , , , , , , , , , , , , , , , , , , , , , , , , , , , , , , , , , , , , , , , , , , , , , , , , , , , , , , , , ,
-272.277516717931,-297.317991382756,-25.0404746648251,1030.00587932281,1317.33470799165,715.695232717417,-143.874827348138,-628.128481465066,-402.876682277938,284.797754050344,-123.618521026553,-161.179233023791, , , , , , , , , , , , , , , , , , , , , , , , , , , , , , , , , , , , , , , , , , , , , , , , , , , , , , , , , , , , ,
-276.632796071806,-318.314621327856,-41.68182525605,1091.58822696502,1406.02502445744,778.931126610409,-99.3230077270634,-594.850970154233,-410.570504137656,297.473708699831,-117.475485407878,-179.998223291953, , , , , , , , , , , , , , , , , , , , , , , , , , , , , , , , , , , , , , , , , , , , , , , , , , , , , , , , , , , , ,
-281.176932160482,-337.662942606428,-56.4860104459454,1151.03416058659,1490.58055744874,836.690196038,-58.1955100144291,-565.48863974389,-418.049840004676,309.419937383455,-112.345460857268,-197.074476526186, , , , , , , , , , , , , , , , , , , , , , , , , , , , , , , , , , , , , , , , , , , , , , , , , , , , , , , , , , , , ,
-286.232027834341,-355.063406770241,-68.8313789358993,1208.1518867195,1571.42204867198,888.121021693845,-24.2815154139075,-541.222038324308,-424.250486391231,320.647717302291,-108.700324449221,-211.94739285307, , , , , , , , , , , , , , , , , , , , , , , , , , , , , , , , , , , , , , , , , , , , , , , , , , , , , , , , , , , , ,
-291.489743065942,-370.599536149298,-79.1097930833561,1263.55642018155,1646.01160806441,933.744292577003,3.40485994670282,-521.486382148443,-429.148428886755,331.04463960762,-106.189974991293,-224.854664616327, , , , , , , , , , , , , , , , , , , , , , , , , , , , , , , , , , , , , , , , , , , , , , , , , , , , , , , , , , , , ,
-297.403010012005,-384.375085588223,-86.9720755762187,1316.88127567972,1715.31764717889,972.240707501597,27.267194193465,-507.667282959067,-433.858400095042,340.889047800114,-105.215467217893,-235.673580582221, , , , , , , , , , , , , , , , , , , , , , , , , , , , , , , , , , , , , , , , , , , , , , , , , , , , , , , , , , , , ,
-303.678439244297,-396.509456773122,-92.8310175288248,1368.01309724862,1776.35983764322,1003.40875077219,41.8543842209663,-498.260966370068,-440.062738415573,350.093948008709,-105.423710857736,-244.670237150973, , , , , , , , , , , , , , , , , , , , , , , , , , , , , , , , , , , , , , , , , , , , , , , , , , , , , , , , , , , , ,
-310.540649206034,-407.132946983561,-96.5922977775272,1416.61122366723,1828.71574776449,1027.01061658041,51.3979287664031,-492.850280164266,-445.00334318956,358.836798094797,-106.974175714253,-251.862622380544, , , , , , , , , , , , , , , , , , , , , , , , , , , , , , , , , , , , , , , , , , , , , , , , , , , , , , , , , , , , ,
-318.878190410547,-416.382201597617,-97.5040111870702,1462.61114472826,1871.38746808631,1041.72886190524,55.7991742708641,-491.267891499352,-450.225608498605,367.630196004082,-110.687089611738,-256.943106392344, , , , , , , , , , , , , , , , , , , , , , , , , , , , , , , , , , , , , , , , , , , , , , , , , , , , , , , , , , , , ,
-328.276854360058,-424.39524754948,-96.1183931894221,1505.71896965807,1902.71973248741,1047.52713430327,47.8655619261783,-494.198637091862,-456.323447303115,376.336050954769,-116.079230585318,-260.256820369451, , , , , , , , , , , , , , , , , , , , , , , , , , , , , , , , , , , , , , , , , , , , , , , , , , , , , , , , , , , , ,
-337.073411762773,-430.784472457173,-93.7110606944006,1545.60707804156,1922.34990377019,1043.05453024978,37.8249547280229,-499.696537747181,-462.164700139432,383.928942109973,-121.681175534186,-262.247766575787, , , , , , , , , , , , , , , , , , , , , , , , , , , , , , , , , , , , , , , , , , , , , , , , , , , , , , , , , , , , ,
-346.525013234308,-436.588541748038,-90.0635285137296,1581.92723326335,1928.62477256807,1028.57844899573,21.283611139645,-508.042114580357,-468.255661661635,391.556777491173,-128.230742360289,-263.326035130884, , , , , , , , , , , , , , , , , , , , , , , , , , , , , , , , , , , , , , , , , , , , , , , , , , , , , , , , , , , , ,
-358.672068058718,-441.547709222668,-82.8756411639502,1614.32364755125,1922.21205732149,1004.60171338077,-0.97378461863762,-519.991688730077,-475.13573627633,400.109888640693,-137.898213447384,-262.211675193309, , , , , , , , , , , , , , , , , , , , , , , , , , , , , , , , , , , , , , , , , , , , , , , , , , , , , , , , , , , , ,
-369.325034292488,-445.794116134596,-76.4690818421084,1642.44538016161,1900.38766172963,970.048141460132,-26.5022206153696,-532.331385339775,-482.861739204563,407.559575213542,-146.42797622519,-261.131598988352, , , , , , , , , , , , , , , , , , , , , , , , , , , , , , , , , , , , , , , , , , , , , , , , , , , , , , , , , , , , ,
-380.469384201688,-448.797855771139,-68.3284715694507,1665.95791257217,1864.01009695063,925.843359703265,-56.6594901273001,-546.310846693093,-489.074878953188,414.633619986413,-156.070456316119,-258.563163670295, , , , , , , , , , , , , , , , , , , , , , , , , , , , , , , , , , , , , , , , , , , , , , , , , , , , , , , , , , , , ,
-391.99126436724,-450.800479420565,-58.809215053325,1684.5541648266,1813.24602330313,873.367589566825,-88.721422320571,-559.664275322003,-495.045892931861,421.395871893902,-166.591024656957,-254.804847236945, , , , , , , , , , , , , , , , , , , , , , , , , , , , , , , , , , , , , , , , , , , , , , , , , , , , , , , , , , , , ,
-403.745071308645,-452.929085398844,-49.1840140901995,1697.96542410965,1748.73744108627,812.438443179414,-125.446114529979,-574.273300342535,-502.286949184918,428.337078353744,-177.280528609223,-251.056549744522, , , , , , , , , , , , , , , , , , , , , , , , , , , , , , , , , , , , , , , , , , , , , , , , , , , , , , , , , , , , ,
-415.55481427302,-453.979017558984,-38.424203285964,1705.97256298424,1671.45707819446,745.035511892835,-166.306783106563,-587.218251355167,-507.68706897352,434.766915916002,-188.565305493528,-246.201610422474, , , , , , , , , , , , , , , , , , , , , , , , , , , , , , , , , , , , , , , , , , , , , , , , , , , , , , , , , , , , ,
-427.359312758485,-454.697031790445,-27.3377190319607,1708.41758244826,1583.17775516968,671.724307436222,-207.759485653056,-599.704795769137,-511.921147863605,441.028172274465,-200.010796863262,-241.017375411203, , , , , , , , , , , , , , , , , , , , , , , , , , , , , , , , , , , , , , , , , , , , , , , , , , , , , , , , , , , , ,
-438.649528023236,-455.15917186984,-16.5096438466042,1705.21508018979,1485.21338545553,594.172795630836,-246.481333512007,-612.205888442603,-515.235463555001,446.904349946538,-211.069942088316,-235.834407858222, , , , , , , , , , , , , , , , , , , , , , , , , , , , , , , , , , , , , , , , , , , , , , , , , , , , , , , , , , , , ,
-450.520655997118,-455.421330715118,-4.90067471799945,1696.36287480807,1379.16412856636,514.091452663554,-286.336440950427,-621.066614288061,-519.603551799055,452.970993356118,-222.809990639559,-230.161002716558, , , , , , , , , , , , , , , , , , , , , , , , , , , , , , , , , , , , , , , , , , , , , , , , , , , , , , , , , , , , ,
-461.030503463448,-455.515908676741,5.51459478670704,1681.95078146105,1266.39223302574,433.582995967724,-322.451149020492,-627.871239942639,-520.6154287683,458.273206070094,-233.272549125077,-225.000656945017, , , , , , , , , , , , , , , , , , , , , , , , , , , , , , , , , , , , , , , , , , , , , , , , , , , , , , , , , , , , ,
-469.739720246005,-455.449539538363,14.2901807076423,1662.16643212811,1150.34816775594,353.506824847849,-359.00204245799,-633.972188614614,-520.278824886124,462.594629892184,-242.014950476824,-220.57967941536, , , , , , , , , , , , , , , , , , , , , , , , , , , , , , , , , , , , , , , , , , , , , , , , , , , , , , , , , , , , ,
-479.106312190471,-455.202291791606,23.9040203988645,1637.2970714215,1031.59938643943,275.645973301181,-391.654624678991,-636.28000614716,-518.746923198008,467.154301991039,-251.505166294668,-215.649135696371, , , , , , , , , , , , , , , , , , , , , , , , , , , , , , , , , , , , , , , , , , , , , , , , , , , , , , , , , , , , ,
-484.914636932934,-454.728578527374,30.18605840556,1607.72646298085,913.049416737161,201.645476213283,-420.186032034276,-636.44901241867,-515.575719718111,469.821607730154,-257.550347669247,-212.271260060907, , , , , , , , , , , , , , , , , , , , , , , , , , , , , , , , , , , , , , , , , , , , , , , , , , , , , , , , , , , , ,
-488.978662348819,-453.959769849924,35.0188924988949,1573.92641211762,797.13505025142,131.763360891484,-444.053615498309,-633.492296452301,-510.703270891858,471.469216099371,-261.998777423857,-209.470438675514, , , , , , , , , , , , , , , , , , , , , , , , , , , , , , , , , , , , , , , , , , , , , , , , , , , , , , , , , , , , ,
-491.148826655077,-452.808294946408,38.3405317086697,1536.44290461195,685.915139800912,67.7167034324584,-463.752344316154,-627.919557395228,-504.257942279106,471.978560800743,-264.744679181874,-207.233881618869, , , , , , , , , , , , , , , , , , , , , , , , , , , , , , , , , , , , , , , , , , , , , , , , , , , , , , , , , , , , ,
-491.318253475603,-451.172910840654,40.1453426349483,1495.87740529657,582.087808547043,10.3254431300353,-479.060764400429,-619.77209421273,-496.265200143333,471.245582158128,-265.731798055275,-205.513784102853, , , , , , , , , , , , , , , , , , , , , , , , , , , , , , , , , , , , , , , , , , , , , , , , , , , , , , , , , , , , ,
-489.426898083277,-448.944784347959,40.482113735318,1452.86437320913,485.357829852645,-39.8324513211793,-489.87900123018,-609.143901172942,-486.78443878349,469.185841215618,-264.954505909298,-204.231335306321, , , , , , , , , , , , , , , , , , , , , , , , , , , , , , , , , , , , , , , , , , , , , , , , , , , , , , , , , , , , ,
-486.323332816216,-446.014026345477,40.3093064707395,1408.04647623363,397.062064372638,-82.4286543799509,-496.224873109514,-596.178140470723,-475.907442570739,466.168679580846,-263.316319643478,-202.852359937369, , , , , , , , , , , , , , , , , , , , , , , , , , , , , , , , , , , , , , , , , , , , , , , , , , , , , , , , , , , , ,
-481.447452674935,-442.276303365915,39.1711493090204,1362.04927688755,318.412186643963,-117.381450805233,-498.22636611499,-581.06241917752,-463.755576348872,461.861878020425,-260.309300991978,-201.552577028447, , , , , , , , , , , , , , , , , , , , , , , , , , , , , , , , , , , , , , , , , , , , , , , , , , , , , , , , , , , , ,
-473.499616825481,-437.639149508552,35.8604673169287,1315.45724054956,249.803675113322,-144.842243745704,-498.212933732268,-564.522590311726,-452.248461795134,455.569383167017,-254.680042071205,-200.889341095812, , , , , , , , , , , , , , , , , , , , , , , , , , , , , , , , , , , , , , , , , , , , , , , , , , , , , , , , , , , , ,
-465.136840927746,-432.027644110975,33.1091968167715,1268.79275290153,191.287455362038,-165.845739841043,-494.136288501142,-550.526042733463,-438.008344143406,448.58224251936,-249.123018872259,-199.459223647101, , , , , , , , , , , , , , , , , , , , , , , , , , , , , , , , , , , , , , , , , , , , , , , , , , , , , , , , , , , , ,
-458.775555639434,-425.389193297604,33.3863623418301,1222.49948158846,142.144115539358,-179.950423165376,-485.193648970263,-532.983898639187,-423.633389802463,442.082374468519,-246.080958990632,-196.001415477887, , , , , , , , , , , , , , , , , , , , , , , , , , , , , , , , , , , , , , , , , , , , , , , , , , , , , , , , , , , , ,
-452.893500103421,-417.697189771409,35.1963103320127,1176.93096261275,101.615936283641,-188.083863560125,-474.113061297552,-519.656602666223,-409.475272636111,435.295344937415,-244.044905217717,-191.250439719698, , , , , , , , , , , , , , , , , , , , , , , , , , , , , , , , , , , , , , , , , , , , , , , , , , , , , , , , , , , , ,
-441.9743380743,-408.953290523388,33.021047550912,1132.34477913064,70.6960413247175,-191.296480885335,-460.779649092494,-504.956357318306,-393.542695453668,425.463814298844,-237.497692812606,-187.966121486238, , , , , , , , , , , , , , , , , , , , , , , , , , , , , , , , , , , , , , , , , , , , , , , , , , , , , , , , , , , , ,
-429.991839948961,-399.188014277103,30.8038256718573,1088.90217498315,47.5223112599917,-189.706926732977,-444.721295493136,-489.164034117307,-377.358304700252,414.589927113032,-230.397832810409,-184.192094302623, , , , , , , , , , , , , , , , , , , , , , , , , , , , , , , , , , , , , , , , , , , , , , , , , , , , , , , , , , , , ,
-419.947632294976,-388.459431710231,31.4882005847448,1046.67250033243,31.0145794714183,-184.680670247528,-426.839979419316,-472.558964217374,-361.95419215107,404.203532002604,-225.717916439861,-178.485615562743, , , , , , , , , , , , , , , , , , , , , , , , , , , , , , , , , , , , , , , , , , , , , , , , , , , , , , , , , , , , ,
-408.844506982747,-376.84993842899,31.9945685537568,1005.6416163449,19.8462595817319,-177.21061509062,-408.655782933496,-455.41160582849,-348.077154067919,392.847222705868,-220.419537768252,-172.427684937616, , , , , , , , , , , , , , , , , , , , , , , , , , , , , , , , , , , , , , , , , , , , , , , , , , , , , , , , , , , , ,
-396.92074951576,-364.461392353159,32.4593571626014,965.723319591434,12.3291110483478,-168.286960984614,-389.264838531795,-437.976738929646,-334.388594968979,380.69107093446,-214.690053339181,-166.001017595279, , , , , , , , , , , , , , , , , , , , , , , , , , , , , , , , , , , , , , , , , , , , , , , , , , , , , , , , , , , , ,
-383.215329420164,-351.409152842664,31.8061765774993,926.772944399595,9.17627329565255,-157.8602428311,-369.130416359573,-420.487617357126,-321.05318167378,367.312241131414,-207.510752998831,-159.801488132582, , , , , , , , , , , , , , , , , , , , , , , , , , , , , , , , , , , , , , , , , , , , , , , , , , , , , , , , , , , , ,
-367.01655210252,-337.815696666794,29.2008554357259,888.602482912793,8.55544995292292,-146.83549638311,-348.488883110281,-403.151323308567,-308.202660419386,352.416124384657,-198.108703769123,-154.307420615534, , , , , , , , , , , , , , , , , , , , , , , , , , , , , , , , , , , , , , , , , , , , , , , , , , , , , , , , , , , , ,
-354.097574904216,-323.804481110527,30.2930937936896,850.996732296518,10.3955950399304,-136.253166185009,-328.116199343935,-386.145382705429,-295.933777427746,338.951028007371,-192.195334348953,-146.755693658418, , , , , , , , , , , , , , , , , , , , , , , , , , , , , , , , , , , , , , , , , , , , , , , , , , , , , , , , , , , , ,
-336.923790840012,-309.494610213622,27.4291806263902,813.730059060277,12.8723285923062,-125.480120031081,-308.228632099838,-369.615582866163,-284.308406805528,323.209200526817,-182.176485733201,-141.032714793616, , , , , , , , , , , , , , , , , , , , , , , , , , , , , , , , , , , , , , , , , , , , , , , , , , , , , , , , , , , , ,
-320.039941576328,-294.996695446681,25.0432461296472,776.583346149653,16.4530200088367,-115.422373944713,-288.988677540182,-353.674905012924,-273.355814521882,307.518318511505,-172.541593852988,-134.976724658517, , , , , , , , , , , , , , , , , , , , , , , , , , , , , , , , , , , , , , , , , , , , , , , , , , , , , , , , , , , , ,
-303.558475618662,-280.410124423346,23.1483511953162,739.360598243725,20.940393379027,-106.761397329592,-270.508280526651,-338.403526745877,-263.076744395997,291.984300021004,-163.353413406989,-128.630886614015, , , , , , , , , , , , , , , , , , , , , , , , , , , , , , , , , , , , , , , , , , , , , , , , , , , , , , , , , , , , ,
-287.367050270126,-265.821767921177,21.5452823489494,701.904562652325,25.4703736718383,-98.3395642532564,-252.853557674863,-323.849930262857,-253.448831277311,276.594409095652,-154.456166309538,-122.138242786114, , , , , , , , , , , , , , , , , , , , , , , , , , , , , , , , , , , , , , , , , , , , , , , , , , , , , , , , , , , , ,
-271.691130088344,-252.488566588037,19.2025635003071,664.110593728775,29.7299030700048,-90.7393270320868,-236.050678307285,-310.033220531314,-244.432763233722,262.089848338191,-145.446846794326,-116.643001543865, , , , , , , , , , , , , , , , , , , , , , , , , , , , , , , , , , , , , , , , , , , , , , , , , , , , , , , , , , , , ,
-256.192562413825,-239.449746054175,16.7428163596503,625.937878834347,33.4594708492872,-84.4545493286832,-220.09259666206,-296.946753536997,-235.978624097508,247.821154234,-136.467689386738,-111.353464847262, , , , , , , , , , , , , , , , , , , , , , , , , , , , , , , , , , , , , , , , , , , , , , , , , , , , , , , , , , , , ,
-241.354228077028,-226.743341939289,14.6108861377395,587.417115477072,36.583961980175,-78.4818688392533,-204.946355157985,-284.563061856032,-228.031930202827,234.048785008159,-127.982557107384,-106.066227900775, , , , , , , , , , , , , , , , , , , , , , , , , , , , , , , , , , , , , , , , , , , , , , , , , , , , , , , , , , , , ,
-226.49205197826,-213.434340632615,13.0577113456445,548.653830400406,38.0469159910122,-73.2191807886086,-190.560682654622,-272.839868399466,-220.539000069816,219.963196305438,-119.774881661952,-100.188314643485, , , , , , , , , , , , , , , , , , , , , , , , , , , , , , , , , , , , , , , , , , , , , , , , , , , , , , , , , , , , ,
-212.532690803818,-199.752924306777,12.7797664970409,509.826762279256,40.1020871035306,-67.8312412091058,-176.873588770295,-261.726775990562,-213.451421834408,206.142807555297,-112.656228650429,-93.486578904868, , , , , , , , , , , , , , , , , , , , , , , , , , , , , , , , , , , , , , , , , , , , , , , , , , , , , , , , , , , , ,
-198.274801096513,-186.403745079433,11.8710560170795,471.18107038182,41.3713588572141,-62.572106076297,-163.819621408924,-250.24456665318,-206.729475060875,192.339273087973,-105.072928556796,-87.2663445311769, , , , , , , , , , , , , , , , , , , , , , , , , , , , , , , , , , , , , , , , , , , , , , , , , , , , , , , , , , , , ,
-183.954926286699,-174.332269369641,9.62265691705859,433.016565495841,42.6032917909706,-57.7087531928311,-151.336432848298,-238.916619955464,-200.344410176669,179.14359782817,-96.7887916018789,-82.354806226291, , , , , , , , , , , , , , , , , , , , , , , , , , , , , , , , , , , , , , , , , , , , , , , , , , , , , , , , , , , , ,
-171.308555761499,-162.946033612514,8.36252214898498,395.671647211297,43.1176157032766,-52.3433862084633,-139.370301284197,-229.298823404226,-194.279507948252,167.127294687007,-89.8355389552422,-77.2917557317646, , , , , , , , , , , , , , , , , , , , , , , , , , , , , , , , , , , , , , , , , , , , , , , , , , , , , , , , , , , , ,
-157.7315619564,-150.875164320474,6.856397635926,359.504101540053,43.4501275811641,-47.3600874760888,-127.880286166184,-220.124248320413,-188.529870090058,154.303363138437,-82.293979796163,-72.009383342274, , , , , , , , , , , , , , , , , , , , , , , , , , , , , , , , , , , , , , , , , , , , , , , , , , , , , , , , , , , , ,
-144.613425353594,-139.302027445649,5.31139790794505,324.870291858328,43.4650385858403,-42.2158340879053,-116.840772000954,-209.064025940516,-183.100960735724,141.957726399622,-74.9624116307697,-66.995314768852, , , , , , , , , , , , , , , , , , , , , , , , , , , , , , , , , , , , , , , , , , , , , , , , , , , , , , , , , , , , ,
-132.002157040425,-128.344300870884,3.65785616954038,292.104499491197,42.4948133276159,-35.6047779713731,-106.242286449963,-198.380739053045,-175.605536508476,130.173228955654,-67.8300066049825,-62.3432223506719, , , , , , , , , , , , , , , , , , , , , , , , , , , , , , , , , , , , , , , , , , , , , , , , , , , , , , , , , , , , ,
-119.94402330521,-117.853319397575,2.09070390763482,261.500176837803,42.5227103675183,-29.6585382772366,-96.0906443689059,-188.088563820435,-168.447989896633,118.898671351392,-61.0173636064222,-57.8813077449699, , , , , , , , , , , , , , , , , , , , , , , , , , , , , , , , , , , , , , , , , , , , , , , , , , , , , , , , , , , , ,
-108.480426460128,-108.103259691507,0.377166768621023,233.294640848164,41.7130245575886,-22.1602376706782,-86.4046270072156,-178.213201745452,-161.652451892534,108.291843075817,-54.4287966143744,-53.8630464614428, , , , , , , , , , , , , , , , , , , , , , , , , , , , , , , , , , , , , , , , , , , , , , , , , , , , , , , , , , , , ,
-97.6449331849071,-99.3247915008492,-1.67985831594207,207.658295715288,41.8883125758141,-14.3302417906719,-77.2125282255824,-168.788262035473,-155.244549133889,98.4848623428781,-47.9825374344825,-50.5023249083956, , , , , , , , , , , , , , , , , , , , , , , , , , , , , , , , , , , , , , , , , , , , , , , , , , , , , , , , , , , , ,
-87.4606577557799,-90.9829904217778,-3.52233266599801,184.68891263372,42.0706808791949,-6.2683834316332,-68.5479893951137,-159.851127586682,-149.248106604644,89.2218240887788,-41.9691625448909,-47.2526615438879, , , , , , , , , , , , , , , , , , , , , , , , , , , , , , , , , , , , , , , , , , , , , , , , , , , , , , , , , , , , ,
-77.9382842377028,-83.4767507636542,-5.53846652595151,164.410918405505,41.9635368934429,1.9052665418078,-60.4455973575227,-151.43869633672,-143.682015693633,80.7075175006785,-36.1999088558756,-44.5076086448028, , , , , , , , , , , , , , , , , , , , , , , , , , , , , , , , , , , , , , , , , , , , , , , , , , , , , , , , , , , , ,
-69.0750397750654,-76.5075857893255,-7.4325460142601,146.7791650927,41.9911366388511,10.0584432006761,-52.9367067428761,-143.583390876131,-138.557562989787,72.7913127821954,-30.8212468804027,-41.9700659017927, , , , , , , , , , , , , , , , , , , , , , , , , , , , , , , , , , , , , , , , , , , , , , , , , , , , , , , , , , , , ,
-60.8548774223476,-70.2827836951685,-9.42790627282089,131.686329657342,41.3597736652074,18.0546231164683,-46.0458524023424,-136.30976928023,-133.876474229888,65.5688305587581,-25.7134855747634,-39.8553449839946, , , , , , , , , , , , , , , , , , , , , , , , , , , , , , , , , , , , , , , , , , , , , , , , , , , , , , , , , , , , ,
-53.2499736323731,-64.775426564549,-11.525452932176,118.972912206906,41.2350531318241,25.7604050139683,-39.7879655800223,-129.631960490018,-129.629829238939,59.012700098461,-20.8622603500986,-38.1504397483624, , , , , , , , , , , , , , , , , , , , , , , , , , , , , , , , , , , , , , , , , , , , , , , , , , , , , , , , , , , , ,
-46.2234071539372,-59.4754308674092,-13.2520237134721,108.438739715613,40.9910190848395,33.0520471681307,-34.1664491144395,-123.552018706636,-125.797874026398,52.8494190106732,-16.4856917202325,-36.3637272904406, , , , , , , , , , , , , , , , , , , , , , , , , , , , , , , , , , , , , , , , , , , , , , , , , , , , , , , , , , , , ,
-39.7326423763469,-55.4062998910834,-15.6736575147365,99.8549451619066,40.1819431663322,39.8210014014422,-29.1720522284627,-118.059176920528,-122.350641695367,47.5694711337151,-12.0294924308052,-35.5399787029099, , , , , , , , , , , , , , , , , , , , , , , , , , , , , , , , , , , , , , , , , , , , , , , , , , , , , , , , , , , , ,
-33.7332968496616,-51.3136485347016,-17.5803516850401,92.9755730499921,39.1694460000165,45.9783520027791,-24.7824513867588,-113.129912481614,-119.249233546008,42.5234726921816,-8.07647258231076,-34.4470001098708, , , , , , , , , , , , , , , , , , , , , , , , , , , , , , , , , , , , , , , , , , , , , , , , , , , , , , , , , , , , ,
-28.1826713706556,-48.0059711541874,-19.8232997835319,87.5482063399518,38.5679706145681,51.4580753180256,-20.9624889642437,-108.728730989174,-116.447612357001,38.0943212624215,-4.17968579356184,-33.9146354688596, , , , , , , , , , , , , , , , , , , , , , , , , , , , , , , , , , , , , , , , , , , , , , , , , , , , , , , , , , , , ,
-23.0426226927943,-46.1716018154151,-23.1289791226209,83.1397830877743,37.7428833761751,56.2190213525082,-17.6650914748557,-104.80960280217,-113.894790522241,34.6071122541047,0.0431782149133069,-34.650290469018, , , , , , , , , , , , , , , , , , , , , , , , , , , , , , , , , , , , , , , , , , , , , , , , , , , , , , , , , , , , ,
-18.2815069848621,-43.4358867560292,-25.1543797711672,79.6599842572774,36.6620894687281,60.2455294337949,-14.8329170905708,-101.318002689748,-111.537316010003,30.8586968704456,3.43643639315259,-34.2951332635982, , , , , , , , , , , , , , , , , , , , , , , , , , , , , , , , , , , , , , , , , , , , , , , , , , , , , , , , , , , , ,
