-103.649293679507,-71.970538147391,31.6787555321156,11.7011127362715,-72.268222561442,-140.026385708626,-193.856406585363,-159.716447791801,-98.8050971134325,87.8099159134493,-67.6640246058113,-20.1458913076376,275,288,305,275,288,305,275,288,305,305,305,301,425,413,362,432,384,333,368,401,401,339,433,386,535,534,523,555,529,536,549,537,535,465,534,544,758,748,873,876,735,738,745,758,766,626,761,748,573,587,604,573,587,604,573,587,604,604,604,600,
-103.649293679507,-71.970538147391,31.6787555321156,11.7011127362715,-72.268222561442,-140.026385708626,-193.856406585363,-159.716447791801,-98.8050971134325,87.8099159134493,-67.6640246058113,-20.1458913076376,952,966,983,952,966,983,952,966,983,983,983,979,448,426,422,466,411,362,423,427,432,363,451,424,571,573,556,575,548,542,568,572,573,572,571,580,830,829,949,947,827,826,828,836,839,829,839,829,1250,1265,1282,1250,1265,1282,1250,1265,1282,1282,1282,1278,
-103.649293679507,-71.970538147391,31.6787555321156,11.7011127362715,-72.268222561442,-140.324988854153,-194.356496724497,-159.716447791801,-98.8050971134325,87.8099159134493,-67.6640246058113,-20.1458913076376,1632,1646,1662,1632,1646,1662,1632,1646,1662,1662,1663,1659,500,498,453,499,451,400,499,500,500,438,500,464,602,601,571,602,586,599,602,603,603,601,603,599,883,887,1300,1526,893,888,885,881,880,1332,881,892,1933,1947,1963,1933,1947,1963,1933,1947,1963,1963,1964,1960,
-103.649293679507,-71.970538147391,31.6787555321156,11.7011127362715,-72.268222561442,-140.605207072511,-194.4334942011,-159.716447791801,-98.8050971134325,87.8099159134493,-67.6640246058113,-20.1458913076376,2309,2324,2340,2309,2324,2340,2309,2324,2340,2340,2340,2336,1101,1089,473,1078,1062,1047,1046,1078,1079,1016,1113,1057,646,651,608,629,620,625,627,648,649,625,646,662,1432,1431,1325,1625,1413,1430,1421,1434,1444,1514,1435,1426,2605,2620,2636,2605,2620,2636,2605,2620,2636,2636,2636,2632,
-103.649293679507,-71.970538147391,31.6787555321156,11.7011127362715,-72.268222561442,-140.026385708626,-194.719670471988,-161.205544332332,-98.8050971134325,87.8099159134493,-67.6640246058113,-20.1458913076376,2986,3002,3017,2986,3002,3017,2986,3002,3017,3017,3018,3013,1126,1106,1046,1119,1090,1100,1099,1102,1105,1042,1127,1103,745,712,644,648,693,685,684,680,679,1143,718,665,1514,1514,1372,1983,1505,1512,1505,1509,1513,2002,1515,1495,3287,3303,3318,3287,3303,3318,3287,3303,3318,3318,3319,3314,
-103.649293679507,-71.970538147391,31.6787555321156,11.7011127362715,-72.268222561442,-140.026385708626,-193.856406585363,-163.411747084958,-100.719399095754,87.8099159134493,-67.6640246058113,-20.1458913076376,3666,3682,3697,3666,3682,3697,3666,3682,3697,3697,3698,3694,1177,1177,1062,1145,1129,1178,1177,1177,1178,1115,1178,1174,1212,1217,711,1208,1208,1220,1226,1213,1212,1249,1211,1215,1561,1563,2220,2022,1570,1570,1562,1559,1558,2210,1562,1559,3966,3980,3996,3966,3980,3996,3966,3980,3996,3996,3997,3993,
-103.649293679507,-71.970538147391,31.6787555321156,11.7011127362715,-72.268222561442,-140.026385708626,-193.856406585363,-164.659150178037,-104.897571796921,87.8099159134493,-67.6640246058113,-20.1458913076376,4348,4362,4378,4348,4362,4378,4348,4362,4378,4378,4380,4376,1784,1772,1098,1758,1742,1726,1758,1758,1758,1647,1794,1744,1249,1252,1206,1228,1227,1235,1245,1250,1250,1279,1249,1235,2115,2116,2305,2072,2093,2093,2108,2117,2123,2653,2112,2116,4650,4664,4681,4650,4664,4681,4650,4664,4681,4681,4682,4678,
-113.48410369499,-71.970538147391,41.5135655475985,26.3612490775641,-72.268222561442,-140.026385708626,-193.856406585363,-164.682325099833,-106.834717922446,92.7273209211908,-77.4988346212942,-15.2284862998962,5030,5044,5060,5030,5044,5060,5030,5044,5060,5060,5062,5058,1809,1786,1145,1801,1773,1779,1782,1785,1812,1809,1809,1785,1279,1280,1233,1255,1264,1281,1280,1280,1281,1332,1281,1277,2197,2194,2903,2658,2185,2186,2187,2190,2194,2865,2200,2192,5329,5344,5360,5329,5344,5360,5329,5344,5360,5360,5361,5357,
-123.884448000605,-71.970538147391,51.9139098532137,37.5108937907703,-72.268222561442,-140.026385708626,-193.856406585363,-165.385203493316,-108.743903212277,97.9274930739984,-87.8991789269094,-10.0283141470886,5706,5720,5736,5706,5720,5736,5706,5720,5736,5736,5737,5733,1857,1857,1726,1857,1809,1825,1857,1857,1857,2372,1858,1822,1325,1327,1248,1282,1298,1307,1305,1324,1325,1840,1325,1301,2248,2244,3011,2882,2257,2249,2244,2242,2243,3336,2251,2242,6002,6017,6032,6002,6017,6032,6002,6017,6032,6032,6033,6029,
-131.265469924488,-71.970538147391,59.294931777097,46.1368950031513,-72.268222561442,-140.026385708626,-193.856406585363,-165.624977844825,-111.38293727857,101.61800403594,-95.2802008507927,-6.33780318514693,6378,6394,6409,6378,6394,6409,6378,6394,6409,6409,6410,6406,2452,2425,1753,2435,2440,2404,2403,2435,2436,2428,2462,2417,1414,1363,1286,1302,1364,1368,1359,1359,1358,1946,1415,1306,2788,2790,3387,2950,2771,2765,2776,2789,2798,3543,2787,2791,6675,6690,6706,6675,6690,6706,6675,6690,6706,6706,6706,6702,
-135.838046607745,-71.970538147391,63.8675084603537,53.4888234854163,-72.268222561442,-140.026385708626,-193.856406585363,-164.344193007238,-112.302952312119,103.904292377568,-99.8527775340494,-4.05151484351857,7052,7067,7084,7052,7067,7084,7052,7067,7084,7084,7084,7080,2482,2457,1782,2476,2445,2448,2455,2458,2463,3034,2483,2455,1895,1897,1300,1890,1891,1899,1908,1895,1893,1975,1895,1900,2865,2865,3550,3576,2860,2859,2862,2864,2868,4014,2866,2864,7350,7364,7381,7350,7364,7381,7350,7364,7381,7381,7382,7377,
-137.904651220598,-71.970538147391,65.9341130732062,57.2824153171328,-72.268222561442,-140.026385708626,-193.856406585363,-163.695304456821,-111.491668129951,104.937594683995,-101.919382146902,-3.01821253709233,7730,7745,7762,7730,7745,7762,7730,7745,7762,7762,7763,7758,2534,2534,1825,2502,2487,2471,2502,2534,2535,3054,2535,2531,1931,1933,1872,1912,1912,1959,1927,1931,1932,2002,1931,1918,2919,2918,4032,3659,2928,2920,2915,2913,2914,4226,2919,2918,8031,8046,8063,8031,8046,8063,8031,8046,8063,8063,8064,8059,
-137.833790282389,-73.6347034706189,64.1990868117695,58.0160409077405,-72.268222561442,-140.026385708626,-193.856406585363,-163.420737403013,-111.113568593722,105.734246876504,-101.016438547079,-4.71780832942465,8415,8430,8447,8415,8430,8447,8415,8430,8447,8447,8448,8443,3135,3128,2475,3090,3119,3081,3080,3112,3113,3133,3145,3077,1962,1960,1889,1937,1946,1985,1962,1962,1962,2494,1963,1959,3474,3464,4243,3986,3449,3448,3464,3479,3485,4699,3481,3459,8719,8734,8751,8719,8734,8751,8719,8734,8751,8751,8751,8747,
-136.032270808432,-76.8661700405215,59.1661007679097,56.2752571366416,-72.268222561442,-140.026385708626,-193.856406585363,-161.325726156095,-111.29789653468,106.449220424477,-97.5991857881706,-8.85003463630588,9108,9123,9140,9108,9123,9140,9108,9123,9140,9140,9141,9138,3164,3141,2480,3118,3124,3135,3137,3140,3143,3714,3163,3108,2004,2003,1931,1964,1981,2044,1987,2003,2006,2604,2005,1978,3545,3536,4897,4221,3541,3543,3543,3548,3551,4905,3545,3529,9417,9432,9449,9417,9432,9449,9417,9432,9449,9449,9451,9449,
-134.395366063727,-78.5244852061908,55.870880857536,52.6919984875094,-72.268222561442,-140.026385708626,-193.856406585363,-159.716447791801,-110.968107075533,106.459925634959,-95.1331234606316,-11.3268021743274,9807,9961,9978,9807,9961,9978,9807,9961,9978,9978,9981,9980,3211,3211,2512,3157,3165,3180,3211,3211,3212,3813,3213,3139,2102,2074,1968,1983,2049,2571,2041,2040,2040,2633,2097,1998,3598,3598,4988,4277,3609,3604,3600,3595,3595,5377,3598,3598, , , , , , , , , , , , ,
-132.574893178358,-80.2131872338418,52.3617059445156,47.9051127119741,-72.268222561442,-140.026385708626,-193.856406585363,-159.716447791801,-108.937145770363,106.3940402061,-92.4682995614367,-13.925740644663, , , , , , , , , , , , ,3814,3807,2532,3177,3778,3756,3760,3746,3793,4426,3822,3176,2566,2568,2006,2554,2562,2631,2581,2568,2566,2653,2565,2560,4149,4142,5443,4701,4129,4128,4139,4138,4157,5586,4154,4134, , , , , , , , , , , , ,
-129.197735836063,-82.0049408605773,47.1927949754854,42.5241800298473,-72.268222561442,-140.026385708626,-193.856406585363,-159.716447791801,-106.72058051996,105.601338348321,-88.1952654057743,-17.4060729425459, , , , , , , , , , , , ,3843,3819,3091,3739,3806,3796,3813,3802,3819,4443,3841,3803,2604,2605,2096,2563,2569,2657,2600,2604,2605,3174,2604,2589,4227,4225,5627,4933,4213,4215,4217,4202,4238,6167,4236,4225, , , , , , , , , , , , ,
-127.415829158278,-82.7013244604387,44.7145046978388,37.0982018268862,-72.268222561442,-140.026385708626,-193.856406585363,-159.716447791801,-105.800854950679,105.058576809359,-86.0651669280584,-18.9934098812999, , , , , , , , , , , , ,3891,3892,3111,3764,3845,4442,3891,3877,3892,4493,3893,3817,2634,2632,2580,2610,2619,2716,2634,2634,2635,3286,2635,2631,4277,4276,6272,5381,4285,4280,4277,4260,4275,6258,4278,4275, , , , , , , , , , , , ,
-125.347908760367,-83.8305451114254,41.517363648941,32.0904093586194,-72.8947232823631,-140.026385708626,-193.856406585363,-159.716447791801,-104.834321598134,104.589226935896,-83.4326362046539,-21.1565907312421, , , , , , , , , , , , ,4468,4487,3180,3806,4458,4496,4474,4458,4474,5092,4508,3889,2677,2678,2615,2636,2654,3253,2659,2677,2679,3315,2676,2738,4802,4827,6379,5604,4809,4825,4825,4833,4838,6841,4839,4824, , , , , , , , , , , , ,
-123.277597884772,-83.5352378837495,39.7423600010222,27.8601223957379,-77.3822919171206,-140.026385708626,-193.856406585363,-159.716447791801,-103.765990030604,103.406417884261,-81.5099789428971,-21.8964389413636, , , , , , , , , , , , ,4498,4503,3722,3826,4487,4541,4500,4503,4528,5125,4528,4465,2740,2764,2631,2655,2716,3313,2713,2712,2710,3336,2784,2763,4873,4906,6725,6281,4903,4904,4904,4906,4909,6938,4900,4907, , , , , , , , , , , , ,
-121.438944885058,-83.2818971457936,38.1570477392636,24.6522295095505,-79.7645174698951,-140.026385708626,-193.856406585363,-159.716447791801,-102.62223494311,102.360421015426,-79.7979963121605,-22.562424703265, , , , , , , , , , , , ,4543,4573,3796,4476,4525,5124,4573,4557,4573,5167,4575,4502,3247,3250,2668,3245,3245,3339,3263,3250,3249,3853,3247,3258,4931,4961,6748,6349,4972,4967,4962,4959,4958,7416,4961,4960, , , , , , , , , , , , ,
-120.010488682393,-81.9195809187994,38.0909077635929,22.5944454792783,-82.8784384362742,-140.026385708626,-193.856406585363,-159.716447791801,-101.254987234439,100.965034800596,-79.0506982229928,-21.9143365776032, , , , , , , , , , , , ,5176,5134,4442,4520,5140,5178,5156,5140,5156,5752,5189,4571,3286,3288,2703,3246,3260,3401,3282,3286,3287,3965,3285,3295,5509,5491,6799,6954,5491,5486,5503,5512,5517,7627,5511,5505, , , , , , , , , , , , ,
-119.060915171702,-80.0902598837934,38.9706552879087,21.7020562857853,-83.7267240456441,-140.026385708626,-193.856406585363,-159.716447791801,-100.171678242986,99.5755875277483,-79.0157852298056,-20.5598022979423, , , , , , , , , , , , ,5206,5167,4477,4575,5168,5223,5179,5182,5185,5791,5206,5141,3316,3315,2767,3292,3302,3930,3316,3317,3317,3994,3318,3313,5586,5569,7659,7021,5583,5582,5584,5590,5592,8102,5587,5582, , , , , , , , , , , , ,
-116.097049011506,-78.2421148096083,37.8549342018976,21.8894288500695,-83.6353916741572,-140.026385708626,-193.856406585363,-159.716447791801,-99.6593616865159,97.1695819105577,-76.975991606702,-20.1935903038553, , , , , , , , , , , , ,5257,5239,4498,5158,5207,5800,5255,5239,5255,5851,5257,5182,3361,3363,3252,3319,3335,3945,3341,3361,3362,4014,3361,3331,5640,5622,7679,7403,5651,5644,5640,5638,5637,8292,5641,5633, , , , , , , , , , , , ,
-116.102457466931,-75.6203810123909,40.4820764545394,22.9871694628486,-82.8145791410804,-140.026385708626,-193.856406585363,-159.716447791801,-99.1111408349005,95.8614192396611,-78.292266960735,-17.5691522789257, , , , , , , , , , , , ,5852,5838,4541,5199,5816,5847,5800,5816,5832,6426,5861,5221,3456,3435,3270,3338,3401,3992,3396,3393,3393,4538,3453,3434,6184,6183,8089,7641,6167,6163,6175,6188,6196,8373,6187,6182, , , , , , , , , , , , ,
-116.609063828486,-72.8703302839629,43.7387335445226,22.2590126751527,-81.6846864723552,-140.026385708626,-193.856406585363,-159.716447791801,-98.8629360773557,94.7396970562248,-80.1738986865042,-14.5657983697201, , , , , , , , , , , , ,5879,5855,5124,5225,5843,5899,5850,5853,5856,6459,5881,5809,3927,3925,3289,3894,3924,4017,3942,3912,3926,4649,3920,3916,6264,6258,8154,8306,6253,6258,6260,6261,6264,8783,6269,6258, , , , , , , , , , , , ,
-117.553537120327,-71.970538147391,45.5829989729361,21.9238754656121,-78.820381795355,-140.026385708626,-193.856406585363,-159.716447791801,-98.8050971134325,94.7620376338596,-81.5682680466318,-13.1937695872274, , , , , , , , , , , , ,5933,5915,5152,5834,5883,6473,5931,5915,5931,6511,5932,5853,3964,3967,3326,3913,3945,4109,3961,3950,3966,4678,3964,3973,6315,6313,8213,8358,6323,6318,6312,6310,6309,8974,6316,6311, , , , , , , , , , , , ,
-118.837211217688,-71.970538147391,46.8666730702966,24.3261021504743,-75.6806989759469,-140.026385708626,-193.856406585363,-159.716447791801,-98.8514654505104,95.4038746825398,-82.8519421439923,-12.5519325385471, , , , , , , , , , , , ,6521,6512,5180,5871,6490,6525,6504,6490,6527,7132,6528,5928,3995,3993,3365,3940,3979,4613,3995,3980,3995,4699,3996,3992,6860,6852,8770,8994,6841,6840,6849,6867,6872,9058,6870,6853, , , , , , , , , , , , ,
-120.335319657796,-71.970538147391,48.3647815104048,26.8074727012128,-72.268222561442,-140.026385708626,-193.856406585363,-159.716447791801,-98.9878737922585,96.1529289025939,-84.3500505841005,-11.802878318493, , , , , , , , , , , , ,6552,6527,5223,5901,6511,6572,6526,6527,6531,7164,6553,6484,4042,4038,3387,3967,4013,4676,4020,4026,4043,5217,4043,4031,6938,6938,8809,9090,6927,6926,6928,6931,6935,9465,6938,6922, , , , , , , , , , , , ,
-120.40951967234,-71.970538147391,48.4389815249484,29.087730015147,-72.268222561442,-140.026385708626,-193.856406585363,-159.716447791801,-99.434091871483,96.1900289098657,-84.4242505986441,-11.7657783112212, , , , , , , , , , , , ,6605,6589,5824,6506,6557,7148,6571,6589,6604,7208,6605,6525,4077,4128,3891,3986,4095,4702,4075,4057,4072,5328,4076,4118,6985,6984,8831,9469,6997,6990,6986,6984,6985,9675,6986,6980, , , , , , , , , , , , ,
-118.916047087071,-71.970538147391,46.9455089396802,30.9297882850021,-72.268222561442,-140.026385708626,-193.856406585363,-159.716447791801,-100.121820087343,95.4432926172316,-82.9307780133758,-12.5125146038554, , , , , , , , , , , , ,7198,7190,5850,6546,7163,7187,7116,7163,7180,7763,7210,6601,4581,4608,3948,4610,4608,4765,4625,4613,4611,5357,4611,4600,7536,7535,9717,9693,7514,7510,7491,7535,7540,9751,7538,7534, , , , , , , , , , , , ,
-120.091673810264,-71.970538147391,48.1211356628726,32.1486116580405,-72.268222561442,-140.026385708626,-193.856406585363,-159.716447791801,-100.102639929166,96.0311059788278,-84.1064047365683,-11.9247012422591, , , , , , , , , , , , ,7227,7203,5899,6573,7187,7215,7172,7206,7210,7893,7229,7164,4619,4650,3963,4629,4627,5295,4644,4649,4650,5377,4648,4657,7612,7609,9739, ,7607,7603,7570,7599,7593, ,7595,7609, , , , , , , , , , , , ,
-121.051676962438,-71.970538147391,49.0811388150463,32.6233366939571,-72.268222561442,-140.026385708626,-193.856406585363,-159.716447791801,-100.136529817383,96.5111075549147,-85.066407888742,-11.4446996661723, , , , , , , , , , , , ,7279,7262,6473,7120,7230,7826,7247,7262,7279,8479,7279,7202,4649,4678,4000,4655,4663,5355,4679,4680,4680,5889,4681,4677,7662,7663,9783, ,7669,7666,7630,7658,7660, ,7660,7664, , , , , , , , , , , , ,
-121.715169426218,-71.970538147391,49.7446312788262,31.9055658359517,-72.268222561442,-140.026385708626,-193.856406585363,-159.716447791801,-100.870485022464,96.8428537868046,-85.7299003525219,-11.1129534342823, , , , , , , , , , , , ,7884,7841,6494,7181,7841,7881,7858,7841,7858,8513,7795,7275,4694,4724,4032,4682,4698,5381,4704,4725,4726,6001,4725,4723,8210,8208, , ,8192,8194,8206,8216,8224, ,8212,8207, , , , , , , , , , , , ,
-122.027556900085,-71.970538147391,50.057018752694,30.1149891231062,-72.268222561442,-140.026385708626,-193.856406585363,-159.716447791801,-101.699816331402,96.9990475237385,-86.0422878263897,-10.9567596973484, , , , , , , , , , , , ,7908,7882,6521,7220,7869,7957,7883,7887,7888,8578,7870,7837,4733,4758,4603,4701,4775,5442,4761,4759,4760,6030,4763,5297,8294,8289, , ,8283,8285,8288,8291,8294, ,8297,8287, , , , , , , , , , , , ,
-119.781854864269,-71.970538147391,47.8113167168773,28.1126854645552,-72.268222561442,-140.026385708626,-193.856406585363,-159.716447791801,-102.593527735256,95.8761965058302,-83.796585790573,-12.0796107152568, , , , , , , , , , , , ,7957,7909,6540,7240,7908,8543,7957,7940,7957,9188,7894,7880,5290,5274,4633,5273,5287,5968,5305,5292,5290,6072,5290,5314,8342,8340, , ,8352,8346,8341,8340,8338, ,8343,8336, , , , , , , , , , , , ,
-117.335415717165,-71.970538147391,45.3648775697733,25.812173099054,-72.268222561442,-140.026385708626,-193.856406585363,-159.716447791801,-100.939710021007,94.6529769322782,-81.350146643469,-13.3028302888088, , , , , , , , , , , , ,8575,7940,7116,7826,8526,8567,8511,8431,8543,9206,8584,7953,5328,5313,4648,5334,5290,5984,5324,5328,5329,6562,5328,5356,8903,8894, , ,8877,8894,8894,8904,8908, ,8908,8876, , , , , , , , , , , , ,
-116.860413162858,-71.970538147391,44.8898750154662,23.4043249159428,-72.268222561442,-140.026385708626,-193.856406585363,-159.716447791801,-98.816144579229,94.4154756551246,-80.8751440891619,-13.5403315659623, , , , , , , , , , , , ,8598,8557,7146,7862,8561,8610,8567,8571,8597,9258,8599,8532,5358,5341,4686,5361,5343,6028,5359,5359,5359,6674,5360,5376,8977,8970, , ,8970,8971,8976,8977,8982, ,8979,8967, , , , , , , , , , , , ,
-116.13227501865,-71.970538147391,44.1617368712589,21.1451163723443,-72.268222561442,-140.026385708626,-193.856406585363,-159.716447791801,-98.8050971134325,94.051406583021,-80.1470059449546,-13.904400638066, , , , , , , , , , , , ,8642,8572,7183,7893,8593,9236,8642,8625,8642, ,8643,8570,5402,5387,4699,5380,5377,6054,5383,5401,5403,6703,5401,5397,9032,9031, , ,9038,9034,9031,9027,9026, ,9033,9031, , , , , , , , , , , , ,
-115.191127254956,-71.970538147391,43.2205891075644,19.2191801935088,-72.268222561442,-140.026385708626,-193.856406585363,-159.716447791801,-98.8050971134325,93.5808327011737,-79.20585818126,-14.3749745199133, , , , , , , , , , , , ,9267,8625,7826,8543,9219,9261,9236,9219,9236, ,9274,8606,5500,5420,5283,5967,5453,6112,5437,5436,5436,6753,5501,5969,9598,9583, , ,9570,9587,9591,9600,9605, ,9610,9585, , , , , , , , , , , , ,
-114.086679145957,-71.970538147391,42.1161409985661,17.2745736836176,-72.268222561442,-140.026385708626,-193.856406585363,-159.716447791801,-98.8050971134325,93.0286086466746,-78.1014100722618,-14.9271985744124, , , , , , , , , , , , ,9295,9254,7876,8591,9260,9303,9267,9269,9273, ,9295,9202,5963,5967,5312,5980,5960,6640,5977,5964,5962,7254,5963,6009,9671,9676, , ,9669,9668,9669,9671,9671, ,9671,9678, , , , , , , , , , , , ,
-112.874900171881,-71.970538147391,40.9043620244898,15.485191643283,-72.268222561442,-140.026385708626,-193.856406585363,-159.716447791801,-98.8050971134325,92.4227191596364,-76.8896310981855,-15.5330880614505, , , , , , , , , , , , ,9335,9270,7957,8642,9286, ,9335,9350,9335, ,9336,9245,6001,6002,5328,6006,5979,6701,5996,6000,6001,7366,6000,6028,9725,9725, , ,9733,9729,9726,9722,9723, ,9725,9725, , , , , , , , , , , , ,
-111.614624211967,-71.970538147391,39.6440860645753,13.9649822333022,-72.268222561442,-140.026385708626,-193.856406585363,-159.716447791801,-98.8050971134325,91.7925811796792,-75.629355138271,-16.1632260414078, , , , , , , , , , , , , ,9318,8561,9268, , , , , , , ,9267,6031,6029,5365,6033,6016,6727,6031,6031,6031,7395,6032,6047, , , , , , , , , , , , , , , , , , , , , , , , ,
-110.3641045189,-71.970538147391,38.393566371509,12.8230623518507,-72.268222561442,-140.026385708626,-193.856406585363,-159.716447791801,-98.8050971134325,91.167321333146,-74.3788354452047,-16.7884858879409, , , , , , , , , , , , , , ,8567,9288, , , , , , , ,9301,6074,6075,5401,6052,6050,6787,6056,6072,6075,7416,6074,6068, , , , , , , , , , , , , , , , , , , , , , , , ,
-108.489898698714,-71.970538147391,36.5193605513231,12.1371373450199,-72.268222561442,-140.026385708626,-193.856406585363,-159.716447791801,-98.8050971134325,90.2302184230531,-72.5046296250187,-17.7255887980339, , , , , , , , , , , , , , ,8600,9335, , , , , , , , ,6174,6110,5419,6619,6114,7315,6110,6109,6108,7921,6152,6628, , , , , , , , , , , , , , , , , , , , , , , , ,
-106.946853101829,-71.970538147391,34.9763149544372,11.7608439023024,-72.268222561442,-140.026385708626,-193.856406585363,-159.716447791801,-98.8050971134325,89.4586956246101,-70.9615840281329,-18.4971115964768, , , , , , , , , , , , , , ,8620, , , , , , , , , ,6636,6631,5946,6626,6632,7330,6651,6637,6636,8030,6637,6661, , , , , , , , , , , , , , , , , , , , , , , , ,
-106.273213487222,-71.970538147391,34.302675339831,12.7345882957338,-72.268222561442,-140.026385708626,-193.856406585363,-159.716447791801,-98.8050971134325,89.121875817307,-70.2879444135266,-18.83393140378, , , , , , , , , , , , , , ,9204, , , , , , , , , ,6674,6675,5984,6679,6648,7376,6671,6674,6675,8060,6674,6701, , , , , , , , , , , , , , , , , , , , , , , , ,
-105.712135517757,-71.970538147391,33.7415973703661,14.3091422964286,-72.268222561442,-140.026385708626,-193.856406585363,-159.716447791801,-98.8050971134325,88.8413368325746,-69.7268664440618,-19.1144703885124, , , , , , , , , , , , , , ,9244, , , , , , , , , ,6704,6702,6000,6706,6689,7402,6704,6704,6705,8102,6705,6718, , , , , , , , , , , , , , , , , , , , , , , , ,
-105.279511674021,-71.970538147391,33.3089735266297,16.282716268238,-72.268222561442,-140.026385708626,-193.856406585363,-159.716447791801,-98.8050971134325,88.6250249107064,-69.2942426003254,-19.3307823103806, , , , , , , , , , , , , , ,9262, , , , , , , , , ,6749,6750,6037,6725,6723,7464,6729,6749,6751,8612,6748,6833, , , , , , , , , , , , , , , , , , , , , , , , ,
-104.98446844338,-71.970538147391,33.0139302959884,18.5093873412204,-72.268222561442,-140.026385708626,-193.856406585363,-159.716447791801,-98.8050971134325,88.4775032953857,-68.9991993696841,-19.4783039257012, , , , , , , , , , , , , , ,9303, , , , , , , , , ,6854,6786,6074,7295,6788,7996,6784,6782,6782,8718,6808,7321, , , , , , , , , , , , , , , , , , , , , , , , ,
-104.830027333749,-71.970538147391,32.8594891863579,19.0701335845711,-72.268222561442,-140.026385708626,-193.856406585363,-159.716447791801,-98.8050971134325,88.4002827405705,-68.8447582600536,-19.5555244805165, , , , , , , , , , , , , , , , , , , , , , , , ,7312,7313,6182,7354,7307,8010,7296,7311,7310,8748,7313,7357, , , , , , , , , , , , , , , , , , , , , , , , ,
-104.813961718666,-71.970538147391,32.8434235712744,19.3145265083195,-72.268222561442,-140.026385708626,-193.856406585363,-159.716447791801,-98.8050971134325,88.3922499330287,-68.82869264497,-19.5635572880583, , , , , , , , , , , , , , , , , , , , , , , , ,7349,7351,6626,7382,7315,8058,7315,7349,7350,8783,7349,7376, , , , , , , , , , , , , , , , , , , , , , , , ,
-104.929572801937,-71.970538147391,32.9590346545452,21.1283413983931,-72.268222561442,-140.026385708626,-193.856406585363,-159.716447791801,-98.8050971134325,88.4500554746641,-68.9443037282409,-19.5057517464228, , , , , , , , , , , , , , , , , , , , , , , , ,7379,7378,6658,7401,7363,8084,7350,7380,7380,9309,7381,7419, , , , , , , , , , , , , , , , , , , , , , , , ,
-105.166277063522,-71.970538147391,33.1957389161302,22.9536022876569,-72.268222561442,-140.026385708626,-193.856406585363,-159.716447791801,-98.8050971134325,88.5684076054566,-69.1810079898259,-19.3873996156303, , , , , , , , , , , , , , , , , , , , , , , , ,7424,7426,6673,7989,7398,8143,7374,7428,7428,9416,7424,7984, , , , , , , , , , , , , , , , , , , , , , , , ,
-105.510081154469,-71.970538147391,33.5395430070774,24.4941140373729,-72.268222561442,-140.026385708626,-193.856406585363,-159.716447791801,-98.8050971134325,88.7403096509302,-69.5248120807731,-19.2154975701567, , , , , , , , , , , , , , , , , , , , , , , , ,7530,7509,6710,8010,7473,8684,7431,7460,7461,9446,7525,8017, , , , , , , , , , , , , , , , , , , , , , , , ,
-105.944105394245,-71.970538147391,33.9735672468538,25.6744876778979,-72.268222561442,-140.026385708626,-193.856406585363,-159.716447791801,-98.8050971134325,88.9573217708184,-69.9588363205495,-18.9984854502685, , , , , , , , , , , , , , , , , , , , , , , , ,7994,7989,6725,8037,7989,8698,8007,7996,7994,9465,7989,8058, , , , , , , , , , , , , , , , , , , , , , , , ,
-106.449291482737,-71.970538147391,34.4787533353457,26.4482675619964,-72.268222561442,-140.026385708626,-193.856406585363,-159.716447791801,-98.8050971134325,89.2099148150644,-70.4640224090414,-18.7458924060226, , , , , , , , , , , , , , , , , , , , , , , , ,8030,8032,7313,8064,8008,8746,8026,8031,8032, ,8030,8151, , , , , , , , , , , , , , , , , , , , , , , , ,
-107.005348512178,-71.970538147391,35.0348103647868,26.4224525602272,-72.268222561442,-140.026385708626,-193.856406585363,-159.716447791801,-98.8050971134325,89.4879433297849,-71.0200794384825,-18.467863891302, , , , , , , , , , , , , , , , , , , , , , , , ,8061,8059,7348,8083,8045,8772,8061,8062,8062, ,8063,8174, , , , , , , , , , , , , , , , , , , , , , , , ,
-107.591909917588,-71.970538147391,35.6213717701967,24.787494113436,-72.268222561442,-140.026385708626,-193.856406585363,-159.716447791801,-98.8050971134325,89.7812240324899,-71.6066408438924,-18.1745831885971, , , , , , , , , , , , , , , , , , , , , , , , ,8106,8107,7385,8678,8080,8831,8086,8105,8106, ,8105,8691, , , , , , , , , , , , , , , , , , , , , , , , ,
-108.189814267757,-71.970538147391,36.2192761203661,22.9600453784601,-72.268222561442,-140.026385708626,-193.856406585363,-159.716447791801,-98.8050971134325,90.0801762075746,-72.2045451940618,-17.8756310135124, , , , , , , , , , , , , , , , , , , , , , , , ,8204,8181,7423,8698,8146,9383,8193,8139,8138, ,8145,8706, , , , , , , , , , , , , , , , , , , , , , , , ,
-108.782381988165,-71.970538147391,36.8118438407738,20.9996845555452,-72.268222561442,-140.026385708626,-193.856406585363,-159.716447791801,-98.8050971134325,90.3764600677784,-72.7971129144694,-17.5793471533086, , , , , , , , , , , , , , , , , , , , , , , , ,8682,8682,7605,8724,8678,9398,8695,8682,8681, ,8682,8746, , , , , , , , , , , , , , , , , , , , , , , , ,
-109.356539259383,-71.970538147391,37.3860011119917,19.3468485367056,-72.268222561442,-140.026385708626,-193.856406585363,-159.716447791801,-98.8050971134325,90.6635387033874,-73.3712701856874,-17.2922685176996, , , , , , , , , , , , , , , , , , , , , , , , ,8718,8719,7968,8751,8699,9444,8714,8719,8719, ,8718,8767, , , , , , , , , , , , , , , , , , , , , , , , ,
-109.889718069932,-71.970538147391,37.9191799225408,18.8880146395495,-72.268222561442,-140.026385708626,-193.856406585363,-159.716447791801,-98.8050971134325,90.9301281086619,-73.9044489962365,-17.025679112425, , , , , , , , , , , , , , , , , , , , , , , , ,8749,8747,8000,8771,8733,9470,8749,8750,8750, ,8750,8775, , , , , , , , , , , , , , , , , , , , , , , , ,
-106.909477359779,-71.970538147391,34.9389392123874,18.3066322007454,-72.268222561442,-140.026385708626,-193.856406585363,-159.716447791801,-98.8050971134325,89.4400077535852,-70.924208286083,-18.5157994675018, , , , , , , , , , , , , , , , , , , , , , , , ,8793,8791,8030,9377,8768,9529,8774,8793,8795, ,8794,9372, , , , , , , , , , , , , , , , , , , , , , , , ,
-107.159768143716,-71.970538147391,35.1892299963246,17.6588963979924,-72.268222561442,-140.026385708626,-193.856406585363,-159.716447791801,-98.8050971134325,89.5651531455538,-71.1744990700203,-18.3906540755331, , , , , , , , , , , , , , , , , , , , , , , , ,8894,8859,8067,9396,8833, ,8876,8826,8827, ,8875,9403, , , , , , , , , , , , , , , , , , , , , , , , ,
-107.3960739121,-71.970538147391,35.4255357647089,17.0043654913054,-72.268222561442,-140.026385708626,-193.856406585363,-159.716447791801,-98.8050971134325,89.683306029746,-71.4108048384045,-18.272501191341, , , , , , , , , , , , , , , , , , , , , , , , ,9379,9376,8089,9422,9377, ,9393,9381,9379, ,9379,9444, , , , , , , , , , , , , , , , , , , , , , , , ,
-107.622107352613,-71.970538147391,35.6515692052221,16.401377502446,-72.268222561442,-140.026385708626,-193.856406585363,-159.716447791801,-98.8050971134325,89.7963227500026,-71.6368382789178,-18.1594844710844, , , , , , , , , , , , , , , , , , , , , , , , ,9416,9417,8683,9449,9396, ,9412,9417,9418, ,9416,9463, , , , , , , , , , , , , , , , , , , , , , , , ,
-107.842841192703,-71.970538147391,35.8723030453118,15.9020359739496,-72.268222561442,-140.026385708626,-193.856406585363,-159.716447791801,-98.8050971134325,89.9066896700474,-71.8575721190074,-18.0491175510396, , , , , , , , , , , , , , , , , , , , , , , , ,9447,9445,8703,9469,9431, ,9447,9447,9448, ,9449,9486, , , , , , , , , , , , , , , , , , , , , , , , ,
-108.063428546699,-71.970538147391,36.0928903993078,15.5471947023702,-72.268222561442,-140.026385708626,-193.856406585363,-159.716447791801,-98.8050971134325,90.0169833470455,-72.0781594730035,-17.9388238740415, , , , , , , , , , , , , , , , , , , , , , , , ,9490,9490,8718, ,9466, ,9472,9489,9491, ,9490, , , , , , , , , , , , , , , , , , , , , , , , , ,
-108.287819963606,-71.970538147391,36.3172818162146,15.3620518909677,-72.268222561442,-140.026385708626,-193.856406585363,-159.716447791801,-98.8050971134325,90.1291790554988,-72.3025508899103,-17.8266281655881, , , , , , , , , , , , , , , , , , , , , , , , ,9587,9549,8756, ,9535, ,9574,9525,9525, ,9540, , , , , , , , , , , , , , , , , , , , , , , , , ,
-106.044872952737,-71.970538147391,34.0743348053458,15.353016374963,-72.268222561442,-140.026385708626,-193.856406585363,-159.716447791801,-98.8050971134325,89.0077055500644,-70.0596038790415,-18.9481016710225, , , , , , , , , , , , , , , , , , , , , , , , , , ,8770, , , , , , , , , , , , , , , , , , , , , , , , , , , , , , , , , ,
-103.649293679507,-71.970538147391,31.6787555321156,15.5064070278187,-72.268222561442,-140.026385708626,-193.856406585363,-159.716447791801,-98.8050971134325,87.8099159134493,-67.6640246058113,-20.1458913076376, , , , , , , , , , , , , , , , , , , , , , , , , , ,9369, , , , , , , , , , , , , , , , , , , , , , , , , , , , , , , , , ,
-103.649293679507,-71.970538147391,31.6787555321156,15.7893158030446,-72.268222561442,-140.026385708626,-193.856406585363,-159.716447791801,-98.8050971134325,87.8099159134493,-67.6640246058113,-20.1458913076376, , , , , , , , , , , , , , , , , , , , , , , , , , ,9400, , , , , , , , , , , , , , , , , , , , , , , , , , , , , , , , , ,
-103.649293679507,-71.970538147391,31.6787555321156,15.7587263977233,-72.268222561442,-140.026385708626,-193.856406585363,-159.716447791801,-98.8050971134325,87.8099159134493,-67.6640246058113,-20.1458913076376, , , , , , , , , , , , , , , , , , , , , , , , , , ,9416, , , , , , , , , , , , , , , , , , , , , , , , , , , , , , , , , ,
-103.649293679507,-71.970538147391,31.6787555321156,15.1872546956664,-72.268222561442,-140.026385708626,-193.856406585363,-159.716447791801,-98.8050971134325,87.8099159134493,-67.6640246058113,-20.1458913076376, , , , , , , , , , , , , , , , , , , , , , , , , , ,9454, , , , , , , , , , , , , , , , , , , , , , , , , , , , , , , , , ,
-103.649293679507,-71.970538147391,31.6787555321156,15.4790175992363,-72.268222561442,-140.026385708626,-193.856406585363,-159.716447791801,-98.8050971134325,87.8099159134493,-67.6640246058113,-20.1458913076376, , , , , , , , , , , , , , , , , , , , , , , , , , ,9470, , , , , , , , , , , , , , , , , , , , , , , , , , , , , , , , , ,
-103.649293679507,-71.970538147391,31.6787555321156,15.7114030703854,-72.268222561442,-140.026385708626,-193.856406585363,-159.716447791801,-98.8050971134325,87.8099159134493,-67.6640246058113,-20.1458913076376, , , , , , , , , , , , , , , , , , , , , , , , , , , , , , , , , , , , , , , , , , , , , , , , , , , , , , , , , , , , ,
-103.649293679507,-71.970538147391,31.6787555321156,15.838015704465,-72.268222561442,-140.026385708626,-193.856406585363,-159.716447791801,-98.8050971134325,87.8099159134493,-67.6640246058113,-20.1458913076376, , , , , , , , , , , , , , , , , , , , , , , , , , , , , , , , , , , , , , , , , , , , , , , , , , , , , , , , , , , , ,
-103.649293679507,-71.970538147391,31.6787555321156,14.8279851158717,-72.268222561442,-140.026385708626,-193.856406585363,-159.716447791801,-98.8050971134325,87.8099159134493,-67.6640246058113,-20.1458913076376, , , , , , , , , , , , , , , , , , , , , , , , , , , , , , , , , , , , , , , , , , , , , , , , , , , , , , , , , , , , ,
-103.649293679507,-71.970538147391,31.6787555321156,13.5560532088171,-72.268222561442,-140.026385708626,-193.856406585363,-159.716447791801,-98.8050971134325,87.8099159134493,-67.6640246058113,-20.1458913076376, , , , , , , , , , , , , , , , , , , , , , , , , , , , , , , , , , , , , , , , , , , , , , , , , , , , , , , , , , , , ,
-103.649293679507,-71.970538147391,31.6787555321156,12.2069524599648,-72.268222561442,-140.026385708626,-193.856406585363,-159.716447791801,-98.8050971134325,87.8099159134493,-67.6640246058113,-20.1458913076376, , , , , , , , , , , , , , , , , , , , , , , , , , , , , , , , , , , , , , , , , , , , , , , , , , , , , , , , , , , , ,
-103.649293679507,-71.970538147391,31.6787555321156,11.7011127362715,-72.268222561442,-140.026385708626,-193.856406585363,-159.716447791801,-98.8050971134325,87.8099159134493,-67.6640246058113,-20.1458913076376, , , , , , , , , , , , , , , , , , , , , , , , , , , , , , , , , , , , , , , , , , , , , , , , , , , , , , , , , , , , ,
-103.649293679507,-71.970538147391,31.6787555321156,11.7011127362715,-72.268222561442,-140.026385708626,-193.856406585363,-159.716447791801,-98.8050971134325,87.8099159134493,-67.6640246058113,-20.1458913076376, , , , , , , , , , , , , , , , , , , , , , , , , , , , , , , , , , , , , , , , , , , , , , , , , , , , , , , , , , , , ,
-103.649293679507,-71.970538147391,31.6787555321156,11.7011127362715,-72.268222561442,-140.026385708626,-193.856406585363,-159.716447791801,-98.8050971134325,87.8099159134493,-67.6640246058113,-20.1458913076376, , , , , , , , , , , , , , , , , , , , , , , , , , , , , , , , , , , , , , , , , , , , , , , , , , , , , , , , , , , , ,
-103.649293679507,-71.970538147391,31.6787555321156,11.7011127362715,-72.268222561442,-140.026385708626,-193.856406585363,-159.716447791801,-98.8050971134325,87.8099159134493,-67.6640246058113,-20.1458913076376, , , , , , , , , , , , , , , , , , , , , , , , , , , , , , , , , , , , , , , , , , , , , , , , , , , , , , , , , , , , ,
-103.649293679507,-71.970538147391,31.6787555321156,11.7011127362715,-72.268222561442,-140.026385708626,-193.856406585363,-159.716447791801,-98.8050971134325,87.8099159134493,-67.6640246058113,-20.1458913076376, , , , , , , , , , , , , , , , , , , , , , , , , , , , , , , , , , , , , , , , , , , , , , , , , , , , , , , , , , , , ,
-103.649293679507,-71.970538147391,31.6787555321156,11.7011127362715,-72.268222561442,-140.026385708626,-193.856406585363,-159.716447791801,-98.8050971134325,87.8099159134493,-67.6640246058113,-20.1458913076376, , , , , , , , , , , , , , , , , , , , , , , , , , , , , , , , , , , , , , , , , , , , , , , , , , , , , , , , , , , , ,
-103.649293679507,-71.970538147391,31.6787555321156,11.7011127362715,-63.0388877577154,-140.026385708626,-193.856406585363,-159.716447791801,-98.8050971134325,87.8099159134493,-67.6640246058113,-20.1458913076376, , , , , , , , , , , , , , , , , , , , , , , , , , , , , , , , , , , , , , , , , , , , , , , , , , , , , , , , , , , , ,
-103.649293679507,-71.970538147391,31.6787555321156,11.7011127362715,-53.556010845886,-128.184090517684,-193.856406585363,-159.716447791801,-98.8050971134325,87.8099159134493,-67.6640246058113,-20.1458913076376, , , , , , , , , , , , , , , , , , , , , , , , , , , , , , , , , , , , , , , , , , , , , , , , , , , , , , , , , , , , ,
-103.649293679507,-71.970538147391,31.6787555321156,11.7011127362715,-43.8920771918208,-116.322657471413,-193.856406585363,-159.716447791801,-98.8050971134325,87.8099159134493,-67.6640246058113,-20.1458913076376, , , , , , , , , , , , , , , , , , , , , , , , , , , , , , , , , , , , , , , , , , , , , , , , , , , , , , , , , , , , ,
-103.649293679507,-71.970538147391,31.6787555321156,11.7011127362715,-34.1198026670766,-104.441755207022,-180.418746764441,-159.716447791801,-98.8050971134325,87.8099159134493,-67.6640246058113,-20.1458913076376, , , , , , , , , , , , , , , , , , , , , , , , , , , , , , , , , , , , , , , , , , , , , , , , , , , , , , , , , , , , ,
-103.649293679507,-71.970538147391,31.6787555321156,12.4629161853567,-24.3078785745367,-92.532106209966,-166.887354085647,-159.716447791801,-98.8050971134325,87.8099159134493,-67.6640246058113,-20.1458913076376, , , , , , , , , , , , , , , , , , , , , , , , , , , , , , , , , , , , , , , , , , , , , , , , , , , , , , , , , , , , ,
-103.649293679507,-69.1652604030499,34.4840332764566,13.7683957527658,-14.5173772356534,-80.5770198893897,-153.311601569305,-159.716447791801,-98.8050971134325,86.4072770412788,-69.0666634779818,-17.3406135632966, , , , , , , , , , , , , , , , , , , , , , , , , , , , , , , , , , , , , , , , , , , , , , , , , , , , , , , , , , , , ,
-103.649293679507,-66.0245604925616,37.624733186945,14.6251721464291,-4.79905780319541,-68.5549628660059,-139.732875082221,-153.708978234189,-98.8050971134325,84.8369270860346,-70.6370134332259,-14.1999136528083, , , , , , , , , , , , , , , , , , , , , , , , , , , , , , , , , , , , , , , , , , , , , , , , , , , , , , , , , , , , ,
-101.257894625505,-62.4696323303788,38.7882622951253,15.238989604877,4.8082966213251,-56.4429016735433,-126.182506604385,-145.062300589268,-98.8050971134325,81.8637634779421,-70.0230784603149,-11.8406850176267, , , , , , , , , , , , , , , , , , , , , , , , , , , , , , , , , , , , , , , , , , , , , , , , , , , , , , , , , , , , ,
-96.7307472248708,-58.4345642988633,38.2961829260071,16.0895128838467,14.2785110205932,-44.2200124347155,-112.680482352575,-136.478274167868,-92.5157368651719,77.5826557618674,-67.513465075439,-10.069190686428, , , , , , , , , , , , , , , , , , , , , , , , , , , , , , , , , , , , , , , , , , , , , , , , , , , , , , , , , , , , ,
-91.5312165888634,-53.8706944366247,37.6605221522383,16.2771321376852,23.5977262877224,-31.8712773580991,-99.2349655091228,-127.958115133511,-86.4512063543377,72.7009555127445,-64.5958693705509,-8.10508614219318, , , , , , , , , , , , , , , , , , , , , , , , , , , , , , , , , , , , , , , , , , , , , , , , , , , , , , , , , , , , ,
-85.6494774886871,-48.7495701002869,36.8999073883999,16.3350163665877,32.7633339720115,-19.3905211154501,-85.8426450994007,-119.4897703203,-80.6554447090999,67.1995237944874,-61.2746924385435,-5.92483135594344, , , , , , , , , , , , , , , , , , , , , , , , , , , , , , , , , , , , , , , , , , , , , , , , , , , , , , , , , , , , ,
-79.1064033023202,-43.0643094577956,36.0420938445242,15.8872517316019,41.7822806887074,-6.78257315785461,-72.4899313470603,-111.048587418495,-75.156376947007,61.0853563800583,-57.5742485734222,-3.51110780663566, , , , , , , , , , , , , , , , , , , , , , , , , , , , , , , , , , , , , , , , , , , , , , , , , , , , , , , , , , , , ,
-71.9494301085967,-36.8293973244254,35.120032784171,15.7076090219156,50.6688607971895,5.93558233965732,-59.1550220030468,-102.599139648071,-69.9646776277215,54.3894137165114,-53.5347314463838,-0.854682270127164, , , , , , , , , , , , , , , , , , , , , , , , , , , , , , , , , , , , , , , , , , , , , , , , , , , , , , , , , , , , ,
-64.2468338300875,-30.0791596208026,34.1676742092845,16.3807627284193,59.4421157426665,18.7346627701721,-45.810816428921,-94.0982038936567,-65.0738864620863,47.1629967254455,-49.207254019686,2.04425729424098, , , , , , , , , , , , , , , , , , , , , , , , , , , , , , , , , , , , , , , , , , , , , , , , , , , , , , , , , , , , ,
-54.5750674983855,-20.3090844607007,34.2659830376845,15.0320500066284,74.6493612040828,36.6850336681833,-24.5041877435284,-82.8109555606075,-55.257347084694,37.4420759795435,-44.420525268035,6.97844928849195, , , , , , , , , , , , , , , , , , , , , , , , , , , , , , , , , , , , , , , , , , , , , , , , , , , , , , , , , , , , ,
-42.69307646436,-10.3024204404146,32.3906560239451,13.4568476250592,85.6398086491216,56.2167794728175,-5.69242811391172,-65.3484465013423,-49.6367419463539,26.4977484523877,-37.5418662441526,11.0441177917653, , , , , , , , , , , , , , , , , , , , , , , , , , , , , , , , , , , , , , , , , , , , , , , , , , , , , , , , , , , , ,
-30.9783012851475,-0.0522907033141848,30.926010581833,11.7011127362715,102.721830007444,79.1025949828857,19.8112631153381,-56.0419671399487,-38.9107452655184,15.5152959942313,-30.9521559334903,15.4368599392594, , , , , , , , , , , , , , , , , , , , , , , , , , , , , , , , , , , , , , , , , , , , , , , , , , , , , , , , , , , , ,
-19.9027269063598,8.95295034270393,28.8556772490633,9.81313129714355,112.008666550963,93.3755487770459,34.5499432970836,-38.5655491663248,-33.7606433473777,5.47488828182831,-24.3792020777116,18.9043137958837, , , , , , , , , , , , , , , , , , , , , , , , , , , , , , , , , , , , , , , , , , , , , , , , , , , , , , , , , , , , ,
-10.2554108805093,18.7457697041994,29.0011805847084,7.84011558586176,127.809505413856,117.511299224871,61.0938549935277,-25.8911464891431,-24.3811044243958,-4.24517941184465,-19.6282957326088,23.8734751444539, , , , , , , , , , , , , , , , , , , , , , , , , , , , , , , , , , , , , , , , , , , , , , , , , , , , , , , , , , , , ,
1.31433963727611,29.4881924475722,28.1738528102957,5.82572321014673,140.339779193285,132.894259966882,77.8534361778712,-10.9129783709367,-17.0079089544462,-15.4012660424238,-13.4297565865098,28.831022628934, , , , , , , , , , , , , , , , , , , , , , , , , , , , , , , , , , , , , , , , , , , , , , , , , , , , , , , , , , , , ,
12.8318973866574,40.2959219802514,27.4640245935936,3.80861137773508,152.298193546725,153.185319376126,101.255143015957,5.00812474941822,-10.0843601099776,-26.563909683454,-7.31606360346808,33.8799732869225, , , , , , , , , , , , , , , , , , , , , , , , , , , , , , , , , , , , , , , , , , , , , , , , , , , , , , , , , , , , ,
24.3784346842719,50.1869670827221,25.8085323984498,1.8219298333884,167.844928536873,172.569323332791,122.000941625467,17.5187820182281,-0.304407903468359,-37.2827008834966,-0.715048857088973,37.997749740586, , , , , , , , , , , , , , , , , , , , , , , , , , , , , , , , , , , , , , , , , , , , , , , , , , , , , , , , , , , , ,
35.2075078974983,59.0953866579561,23.8878787604574,-0.106493545579291,176.579367421624,187.397775932524,141.103326508733,36.1170950383344,4.24651998977554,-47.1514472777268,5.65981456852045,41.4916327092068, , , , , , , , , , , , , , , , , , , , , , , , , , , , , , , , , , , , , , , , , , , , , , , , , , , , , , , , , , , , ,
44.7045555366671,69.5359416121552,24.8313860754877,-1.95358458442313,191.142082303687,209.534073696898,165.5325789844,46.7284512818292,14.5575931144329,-57.1202485744107,9.9365847305897,47.1836638438215, , , , , , , , , , , , , , , , , , , , , , , , , , , , , , , , , , , , , , , , , , , , , , , , , , , , , , , , , , , , ,
56.1946523232721,79.7430576771052,23.5484053538327,-3.7003485234253,203.99795637952,221.008874503485,180.218048962874,64.9326522776715,20.7628010447897,-67.9688550001883,16.3231234847197,51.645731515469, , , , , , , , , , , , , , , , , , , , , , , , , , , , , , , , , , , , , , , , , , , , , , , , , , , , , , , , , , , , ,
67.7571915070749,87.7289820184904,19.9717905114152,-5.33125158426693,213.795511861146,241.293666520043,204.989962126173,78.26689033418,29.0367560343933,-77.7430867627823,23.8927004978299,53.8503862649528, , , , , , , , , , , , , , , , , , , , , , , , , , , , , , , , , , , , , , , , , , , , , , , , , , , , , , , , , , , , ,
77.4725306717894,96.0348464582598,18.5623157864701,-6.83369167040973,227.830939149099,256.692783503943,221.214309870117,93.3617664544704,38.0732288695458,-86.7536885650242,29.4551074426597,57.298581122365, , , , , , , , , , , , , , , , , , , , , , , , , , , , , , , , , , , , , , , , , , , , , , , , , , , , , , , , , , , , ,
86.4879363508606,105.001399623216,18.5134632723551,-8.19752327272482,239.056638377206,271.74731493264,242.011291848276,109.048494619303,43.6282780597992,-95.744667987038,33.9872365392527,61.7574314477857, , , , , , , , , , , , , , , , , , , , , , , , , , , , , , , , , , , , , , , , , , , , , , , , , , , , , , , , , , , , ,
97.5183616581324,112.594119250967,15.0757575928342,-9.41460825275077,249.499120214708,291.203019646023,261.731492359778,120.807703011424,53.5545405861043,-105.056240454549,41.2213020326491,63.8349384219007, , , , , , , , , , , , , , , , , , , , , , , , , , , , , , , , , , , , , , , , , , , , , , , , , , , , , , , , , , , , ,
106.457754246933,118.20523821954,11.7474839726066,-10.478400756686,262.848817615663,301.319918827258,277.398124145798,137.735456249272,60.0658630453865,-112.331496233236,47.3551351371631,64.9763610960732, , , , , , , , , , , , , , , , , , , , , , , , , , , , , , , , , , , , , , , , , , , , , , , , , , , , , , , , , , , , ,
113.718728156322,125.554884578434,11.8361564221111,-11.3835982118888,273.575063560752,321.090352654956,299.422422409933,147.478756607978,67.786760296036,-119.636806367378,50.9412858671055,68.6955205002725, , , , , , , , , , , , , , , , , , , , , , , , , , , , , , , , , , , , , , , , , , , , , , , , , , , , , , , , , , , , ,
123.657931440911,132.019477752001,8.36154631108913,-12.1258918309914,283.856302157771,334.370414160711,312.046922324394,162.632423567515,77.0496061562438,-127.838704596456,57.648192564911,70.190512031545, , , , , , , , , , , , , , , , , , , , , , , , , , , , , , , , , , , , , , , , , , , , , , , , , , , , , , , , , , , , ,
129.505004920547,135.3804493536,5.87544443305275,-12.7018383882961,296.79140183881,349.990319805313,331.897236708556,174.168882333487,81.7363286150367,-132.442727137073,61.8147802437469,70.6279468933263, , , , , , , , , , , , , , , , , , , , , , , , , , , , , , , , , , , , , , , , , , , , , , , , , , , , , , , , , , , , ,
136.560356164136,141.076412745572,4.5160565814354,-13.1088617151759,307.534674531047,367.962222143597,348.178529364953,185.489089493574,90.3130736299534,-138.818384454854,66.0221497913504,72.7962346635037, , , , , , , , , , , , , , , , , , , , , , , , , , , , , , , , , , , , , , , , , , , , , , , , , , , , , , , , , , , , ,
144.274846762124,146.248296085764,1.97344932363909,-13.3453872026216,317.247737407704,378.802981932674,362.510780172549,198.548793477023,97.9691132425715,-145.261571423943,71.1506987192425,74.1108727047014, , , , , , , , , , , , , , , , , , , , , , , , , , , , , , , , , , , , , , , , , , , , , , , , , , , , , , , , , , , , ,
147.141941580628,147.883020174629,0.741078594000175,-13.4111188088944,329.838837390111,397.934117627528,381.563189738441,206.172754021895,102.714043850959,-147.512480877628,73.200431493314,74.3120493843145, , , , , , , , , , , , , , , , , , , , , , , , , , , , , , , , , , , , , , , , , , , , , , , , , , , , , , , , , , , , ,
154.602094140026,152.157885587841,-2.44420855218531,-13.3074784707467,340.446439705863,410.958703030716,392.049190748398,219.039499944175,110.396841136892,-153.379989863934,78.5231513461058,74.8568385178281, , , , , , , , , , , , , , , , , , , , , , , , , , , , , , , , , , , , , , , , , , , , , , , , , , , , , , , , , , , , ,
157.459268202502,156.058108191876,-1.40116001062701,-13.0382291729963,349.414653324115,426.235915648821,409.177939870396,226.217215833998,116.714758766381,-156.758688197188,79.4302141065646,77.3284740906243, , , , , , , , , , , , , , , , , , , , , , , , , , , , , , , , , , , , , , , , , , , , , , , , , , , , , , , , , , , , ,
162.374490976385,157.003597106111,-5.37089387027434,-12.6102854679806,361.448790641526,443.93993139931,423.454002300651,236.521210911927,121.068467827548,-159.689044041248,83.8726924233298,75.8163516179185, , , , , , , , , , , , , , , , , , , , , , , , , , , , , , , , , , , , , , , , , , , , , , , , , , , , , , , , , , , , ,
166.692767920663,160.055646161484,-6.6371217591796,-12.0346776086071,371.303762222836,453.754219535759,434.828771025873,245.01249223353,127.646274199754,-163.374207041073,86.6649448399215,76.7092622011523, , , , , , , , , , , , , , , , , , , , , , , , , , , , , , , , , , , , , , , , , , , , , , , , , , , , , , , , , , , , ,
169.023302873813,163.216694916698,-5.80660795711598,-11.3275802444079,379.410907874666,471.376357785358,450.919238424379,252.205529161857,132.908363589187,-166.119998895255,87.4149554154647,78.705043479791, , , , , , , , , , , , , , , , , , , , , , , , , , , , , , , , , , , , , , , , , , , , , , , , , , , , , , , , , , , , ,
174.883191280526,164.065879988366,-10.817311292161,-10.5112493154934,390.457828660866,484.340364558703,460.255541607794,261.850948251183,136.564491733962,-169.474535634446,92.8502512863438,76.6242843481025, , , , , , , , , , , , , , , , , , , , , , , , , , , , , , , , , , , , , , , , , , , , , , , , , , , , , , , , , , , , ,
175.353162688349,166.49436957072,-8.85879311762933,-9.61465014841743,398.845915963636,496.398128755652,473.30356166512,266.403362967492,142.177541490124,-170.923766129534,92.1059779029891,78.8177882265453, , , , , , , , , , , , , , , , , , , , , , , , , , , , , , , , , , , , , , , , , , , , , , , , , , , , , , , , , , , , ,
181.393572501934,169.565976198936,-11.8275963029982,-8.67353879609401,405.919828702587,512.107645636316,486.397452227051,276.202963635392,146.473839949205,-175.479774350434,96.6105844024659,78.8691899479689, , , , , , , , , , , , , , , , , , , , , , , , , , , , , , , , , , , , , , , , , , , , , , , , , , , , , , , , , , , , ,
183.64055513669,170.966600132015,-12.6739550046756,-7.72980689502,415.505526914221,520.565815432033,493.471607267613,280.308626048341,149.582316107216,-177.303577634352,98.1572550706827,79.1463225636696, , , , , , , , , , , , , , , , , , , , , , , , , , , , , , , , , , , , , , , , , , , , , , , , , , , , , , , , , , , , ,
188.55141153266,173.409995941328,-15.1414155913323,-6.83002716244385,421.997284874954,533.290751764061,506.423962724372,288.775035655973,154.438318665746,-180.980703736993,101.846413561996,79.1342901749978, , , , , , , , , , , , , , , , , , , , , , , , , , , , , , , , , , , , , , , , , , , , , , , , , , , , , , , , , , , , ,
192.869050544133,177.015204751627,-15.8538457925058,-6.02331889296075,427.790045078717,546.019876671764,515.249594778598,293.895393274988,157.67488953973,-184.942127647879,104.361448168319,80.5806794795607, , , , , , , , , , , , , , , , , , , , , , , , , , , , , , , , , , , , , , , , , , , , , , , , , , , , , , , , , , , , ,
196.909903294714,179.492879262506,-17.4170240322089,-5.35882776860813,435.615117725095,551.582985813657,523.160071110569,300.670749136954,160.653832879864,-188.20139127861,107.163463663462,81.0379276151484, , , , , , , , , , , , , , , , , , , , , , , , , , , , , , , , , , , , , , , , , , , , , , , , , , , , , , , , , , , , ,
201.573563915783,182.442568447144,-19.1309954686391,-4.88320688569726,440.33352902316,563.175123706779,534.243810546854,306.714479521643,164.933375589844,-192.008066181463,110.352279692211,81.6557864892527, , , , , , , , , , , , , , , , , , , , , , , , , , , , , , , , , , , , , , , , , , , , , , , , , , , , , , , , , , , , ,
204.103411840899,186.952743720877,-17.1506681200224,-4.63845922365663,444.593293172614,572.38239362453,539.575924860899,312.161621175552,166.934144803352,-195.528077780888,110.627039980461,84.9010378004274, , , , , , , , , , , , , , , , , , , , , , , , , , , , , , , , , , , , , , , , , , , , , , , , , , , , , , , , , , , , ,
208.488142179749,190.682601605275,-17.8055405744743,-4.66037576161232,450.687818248695,576.988643748325,547.854149004435,319.094481160485,170.278648989071,-199.585371892512,113.146841377112,86.4385305154006, , , , , , , , , , , , , , , , , , , , , , , , , , , , , , , , , , , , , , , , , , , , , , , , , , , , , , , , , , , , ,
212.352014344857,194.268486140401,-18.0835282044565,-4.97763181138276,454.316750044198,586.155589491053,557.26990438272,323.46494191728,173.674724107177,-203.310250242629,115.217771274657,88.0924789679723, , , , , , , , , , , , , , , , , , , , , , , , , , , , , , , , , , , , , , , , , , , , , , , , , , , , , , , , , , , , ,
220.175823578027,199.637618588085,-20.5382049899423,-5.61144460018397,456.821607454853,593.180893875241,560.10594083942,331.307777384192,175.264939295013,-209.906721083055,120.357014283984,89.5497067990713, , , , , , , , , , , , , , , , , , , , , , , , , , , , , , , , , , , , , , , , , , , , , , , , , , , , , , , , , , , , ,
223.783367755659,204.294632304267,-19.4887354513923,-6.57558950569722,461.46758497039,596.172291242558,568.204361627987,334.699315915517,178.936647001875,-214.039000029963,121.636051603526,92.4029484264376, , , , , , , , , , , , , , , , , , , , , , , , , , , , , , , , , , , , , , , , , , , , , , , , , , , , , , , , , , , , ,
231.120582149466,208.280709290161,-22.8398728593061,-7.87653965941922,464.902492753373,603.393521772795,576.024581401784,343.204308989934,180.84285973207,-219.700645719813,126.980227504386,92.7204182154273, , , , , , , , , , , , , , , , , , , , , , , , , , , , , , , , , , , , , , , , , , , , , , , , , , , , , , , , , , , , ,
235.644388053398,214.098450732003,-21.5459373213959,-9.51353455750529,465.358027560406,609.520813978306,577.548088028197,346.133933337808,183.624750714501,-224.8714193927,128.595162687397,96.2762567053035, , , , , , , , , , , , , , , , , , , , , , , , , , , , , , , , , , , , , , , , , , , , , , , , , , , , , , , , , , , , ,
241.65645312022,218.897648491806,-22.758804628414,-11.4784812358035,468.797251085524,610.431968042067,584.503941741809,354.105739308392,186.499403386734,-230.277050806013,132.207628874317,98.0694219316962, , , , , , , , , , , , , , , , , , , , , , , , , , , , , , , , , , , , , , , , , , , , , , , , , , , , , , , , , , , , ,
246.708625542649,222.957698791094,-23.7509267515554,-13.7557098467715,471.805356699474,616.129509330672,590.822581082308,358.196031543825,188.304590269453,-234.833162166871,135.229776147102,99.6033860197691, , , , , , , , , , , , , , , , , , , , , , , , , , , , , , , , , , , , , , , , , , , , , , , , , , , , , , , , , , , , ,
251.45395131166,228.700574273713,-22.7533770379474,-16.3216994677434,471.444354148743,621.355874651824,591.459381409127,364.453587529562,191.645736512785,-240.077262792686,137.103664174804,102.973598617883, , , , , , , , , , , , , , , , , , , , , , , , , , , , , , , , , , , , , , , , , , , , , , , , , , , , , , , , , , , , ,
256.761317658157,232.594502448368,-24.1668152097898,-19.1449313160429,472.818419750566,621.215445862763,596.21399251208,369.796984900473,193.316817480726,-244.677910053262,140.464066433974,104.213843619289, , , , , , , , , , , , , , , , , , , , , , , , , , , , , , , , , , , , , , , , , , , , , , , , , , , , , , , , , , , , ,
260.33764608398,236.692123387529,-23.645522696451,-22.1860132349084,474.561366982595,624.846982790528,600.620396096435,373.742745047562,196.210099164152,-248.514884735754,141.991584390215,106.523300345539, , , , , , , , , , , , , , , , , , , , , , , , , , , , , , , , , , , , , , , , , , , , , , , , , , , , , , , , , , , , ,
265.720421436546,241.978373653946,-23.7420477826008,-25.3981675008908,474.692013635787,628.740437833633,600.969825963034,380.188967095207,198.720234036537,-253.849397545246,144.731234609574,109.118162935673, , , , , , , , , , , , , , , , , , , , , , , , , , , , , , , , , , , , , , , , , , , , , , , , , , , , , , , , , , , , ,
268.202928267692,243.858889906285,-24.3440383614075,-28.7281128856672,472.874817267676,627.957348576992,602.137026316655,381.647171120008,200.598194400751,-256.030909086988,146.27348331455,109.757425772439, , , , , , , , , , , , , , , , , , , , , , , , , , , , , , , , , , , , , , , , , , , , , , , , , , , , , , , , , , , , ,
270.066585913438,248.425689290429,-21.6408966230093,-32.1173354825325,473.091409740744,629.184430354933,604.255543508315,386.574985377385,203.292625720936,-259.246137601933,145.853741268224,113.39239633371, , , , , , , , , , , , , , , , , , , , , , , , , , , , , , , , , , , , , , , , , , , , , , , , , , , , , , , , , , , , ,
271.668553973147,251.344601200613,-20.323952772534,-35.503740621341,472.756591187445,631.607430728698,604.431285776496,389.825125155826,205.120991444063,-261.50657758688,145.99625337284,115.51032421404, , , , , , , , , , , , , , , , , , , , , , , , , , , , , , , , , , , , , , , , , , , , , , , , , , , , , , , , , , , , ,
276.237084725465,253.566804405352,-22.6702803201129,-38.8236807193085,468.635787204894,628.982837814816,601.091420146932,390.432808066344,206.804346956709,-264.901944565408,149.453682522789,115.44826204262, , , , , , , , , , , , , , , , , , , , , , , , , , , , , , , , , , , , , , , , , , , , , , , , , , , , , , , , , , , , ,
277.462432133138,257.232837124559,-20.2295950085795,-42.014328594441,466.675939249575,628.451717315249,600.745880837765,393.131770639452,208.679486462726,-267.347634628848,148.846013570859,118.50162105799, , , , , , , , , , , , , , , , , , , , , , , , , , , , , , , , , , , , , , , , , , , , , , , , , , , , , , , , , , , , ,
280.86476521155,257.275389010765,-23.5893762007855,-45.0163131681735,464.660855693016,629.24487762273,599.63680144777,394.102332953326,210.177367708993,-269.070077111157,152.227070706168,116.84300640499, , , , , , , , , , , , , , , , , , , , , , , , , , , , , , , , , , , , , , , , , , , , , , , , , , , , , , , , , , , , ,
281.936507352049,260.640753222785,-21.2957541292648,-47.7764725134676,460.292925778524,623.4238234994,593.667827796527,392.439350026456,210.745130925733,-271.288630287416,151.616130740657,119.67249954676, , , , , , , , , , , , , , , , , , , , , , , , , , , , , , , , , , , , , , , , , , , , , , , , , , , , , , , , , , , , ,
283.497410338328,260.160891245314,-23.336519093015,-50.2505210182392,455.388778752281,622.177853238333,590.038484887035,392.507153926051,211.529537956367,-271.829150791821,153.416964715672,118.412186076149, , , , , , , , , , , , , , , , , , , , , , , , , , , , , , , , , , , , , , , , , , , , , , , , , , , , , , , , , , , , ,
284.25731583102,261.990561305317,-22.2667545257027,-52.40539393252,451.885593161434,619.983870350859,586.841633336783,391.690878610704,212.039993305267,-273.123938568168,153.262035178361,119.861903389807, , , , , , , , , , , , , , , , , , , , , , , , , , , , , , , , , , , , , , , , , , , , , , , , , , , , , , , , , , , , ,
283.620270021411,261.503823117052,-22.1164469043589,-54.2210492262074,447.574848876729,612.422409824816,580.209905765641,388.580738074542,212.266260316577,-272.562046569231,152.868358462885,119.693688106347, , , , , , , , , , , , , , , , , , , , , , , , , , , , , , , , , , , , , , , , , , , , , , , , , , , , , , , , , , , , ,
283.60815154519,261.518751466897,-22.0894000782934,-55.6915664102947,440.112931497636,610.236424563194,573.235605539374,385.406538907373,212.071503361134,-272.563451506043,152.848775811741,119.714675694302, , , , , , , , , , , , , , , , , , , , , , , , , , , , , , , , , , , , , , , , , , , , , , , , , , , , , , , , , , , , ,
281.13534124101,260.86540116929,-20.2699400717203,-56.8254452256394,435.435614590919,603.529098837185,568.552100620741,382.74088401123,211.270302135933,-271.00037120515,150.702640656365,120.297730548785, , , , , , , , , , , , , , , , , , , , , , , , , , , , , , , , , , , , , , , , , , , , , , , , , , , , , , , , , , , , ,
278.970675069097,259.19805225739,-19.7726228117074,-57.645050620462,430.359103379633,596.678404255695,561.014809739445,379.649484261108,210.881821751532,-269.084363663243,149.371648940402,119.712714722841, , , , , , , , , , , , , , , , , , , , , , , , , , , , , , , , , , , , , , , , , , , , , , , , , , , , , , , , , , , , ,
276.137016429406,258.33727511585,-17.7997413135561,-58.1851874735752,423.342275026172,592.61969103255,552.193295700351,375.353240633874,210.486246344458,-267.237145772628,146.968378871481,120.268766901147, , , , , , , , , , , , , , , , , , , , , , , , , , , , , , , , , , , , , , , , , , , , , , , , , , , , , , , , , , , , ,
271.317870620675,255.184311556856,-16.1335590638193,-58.4908434489237,416.166591450143,581.455780989165,546.634137648956,370.230594013349,208.774650623523,-263.251091088765,143.725714842247,119.525376246519, , , , , , , , , , , , , , , , , , , , , , , , , , , , , , , , , , , , , , , , , , , , , , , , , , , , , , , , , , , , ,
266.462287085424,254.203623226663,-12.2586638587613,-58.6142202513374,410.08136189146,575.386765879099,537.99233696673,366.509929675406,208.128344380594,-260.332955156043,139.360475472092,120.972479683951, , , , , , , , , , , , , , , , , , , , , , , , , , , , , , , , , , , , , , , , , , , , , , , , , , , , , , , , , , , , ,
261.023905062366,249.815057671879,-11.2088473904879,-58.6112589984758,403.580139916904,568.035129253004,528.627955412599,362.783428903033,207.112771433195,-255.419481367122,136.116376226427,119.303105140696, , , , , , , , , , , , , , , , , , , , , , , , , , , , , , , , , , , , , , , , , , , , , , , , , , , , , , , , , , , , ,
254.838406320346,248.739672257104,-6.09873406324267,-58.537903443274,395.460573444055,555.902663630121,522.47718613282,358.0539015339,205.326668708813,-251.789039288725,130.468570191794,121.320469096931, , , , , , , , , , , , , , , , , , , , , , , , , , , , , , , , , , , , , , , , , , , , , , , , , , , , , , , , , , , , ,
247.850486630775,243.662639185819,-4.187847444956,-58.4463108692714,386.938878256544,548.525530818351,512.584849781598,352.324605329124,204.968876816797,-245.756562908297,126.019167037865,119.737395870432, , , , , , , , , , , , , , , , , , , , , , , , , , , , , , , , , , , , , , , , , , , , , , , , , , , , , , , , , , , , ,
240.310972988085,241.97072562785,1.65975263976479,-58.3811645046166,379.27505563334,538.551189882482,503.176325494754,348.534436953663,202.190644665326,-241.140849307967,119.32561017416,121.815239133808, , , , , , , , , , , , , , , , , , , , , , , , , , , , , , , , , , , , , , , , , , , , , , , , , , , , , , , , , , , , ,
232.982992828658,237.480955731116,4.4979629024579,-58.3762426810935,371.192659478385,525.709786381444,496.193175517778,344.784195831064,201.909211616773,-235.231974279887,114.2425149631,120.989459316787, , , , , , , , , , , , , , , , , , , , , , , , , , , , , , , , , , , , , , , , , , , , , , , , , , , , , , , , , , , , ,
225.605207803415,234.694566820896,9.08935901748008,-58.4514747883738,362.657028970539,516.215020361308,485.037802206793,337.602187652781,199.197850063619,-230.149887312155,108.257924392968,121.891962919188, , , , , , , , , , , , , , , , , , , , , , , , , , , , , , , , , , , , , , , , , , , , , , , , , , , , , , , , , , , , ,
218.3767105149,230.878600854345,12.5018903394437,-58.6107970542371,351.469050864841,505.70587835594,475.001623200244,333.115903265514,198.382889030794,-224.627655684622,102.937410087728,121.690245596894, , , , , , , , , , , , , , , , , , , , , , , , , , , , , , , , , , , , , , , , , , , , , , , , , , , , , , , , , , , , ,
211.479312253839,226.915703384237,15.4363911303971,-58.8411344746054,342.274274178221,490.313017583031,466.522999170271,328.862782106812,195.686570530032,-219.197507819038,98.0214605617211,121.176047257317, , , , , , , , , , , , , , , , , , , , , , , , , , , , , , , , , , , , , , , , , , , , , , , , , , , , , , , , , , , , ,
204.832180483606,223.711698625544,18.879518141938,-59.1127472352087,332.851671188599,478.775559514916,454.409993968712,320.803830467181,194.228877585009,-214.271939554575,92.976331170834,121.295608383741, , , , , , , , , , , , , , , , , , , , , , , , , , , , , , , , , , , , , , , , , , , , , , , , , , , , , , , , , , , , ,
198.09758209257,218.36842439958,20.2708423070089,-59.3810059840221,323.295306857232,466.420559528908,442.298343246105,315.142192395272,191.456502264255,-208.233003246075,88.9133698927808,119.319633353294, , , , , , , , , , , , , , , , , , , , , , , , , , , , , , , , , , , , , , , , , , , , , , , , , , , , , , , , , , , , ,
192.645939488436,214.807491023087,22.1615515346507,-59.5894467567862,310.524016495629,453.307807970209,431.614681724184,309.846483483323,189.235807488931,-203.726715255761,85.2421939768925,118.484521278869, , , , , , , , , , , , , , , , , , , , , , , , , , , , , , , , , , , , , , , , , , , , , , , , , , , , , , , , , , , , ,
187.058881654789,209.393402745992,22.3345210912029,-59.6737745145093,300.591537278431,437.002855331297,419.354534501821,299.694583501396,186.346035581909,-198.22614220039,82.3621802817929,115.863961918598, , , , , , , , , , , , , , , , , , , , , , , , , , , , , , , , , , , , , , , , , , , , , , , , , , , , , , , , , , , , ,
181.054732783722,204.10443899371,23.049706209987,-59.5664016582535,290.813641514108,422.610657406466,403.43566503293,293.400965104735,183.236290493727,-192.579585888715,79.0025132868676,113.577072601848, , , , , , , , , , , , , , , , , , , , , , , , , , , , , , , , , , , , , , , , , , , , , , , , , , , , , , , , , , , , ,
176.010330042939,198.932295717593,22.9219656746536,-59.2011362708976,278.895376800566,407.9848404785,390.226006469143,285.728753757635,180.246982743134,-187.471312880266,76.5441821841428,110.927130696123, , , , , , , , , , , , , , , , , , , , , , , , , , , , , , , , , , , , , , , , , , , , , , , , , , , , , , , , , , , , ,
170.94897572301,191.762327763402,20.8133520403913,-58.5177168064795,267.674157864895,392.906564851239,376.069963336924,275.145544928411,176.143732770744,-181.355651743205,75.0678118413092,106.287839901896, , , , , , , , , , , , , , , , , , , , , , , , , , , , , , , , , , , , , , , , , , , , , , , , , , , , , , , , , , , , ,
166.283450860543,185.346219769319,19.0627689087757,-57.4659536047646,258.274349946404,377.505008639831,361.060380077738,267.684876999205,173.125257242969,-175.81483531493,73.6103409758835,102.204494339047, , , , , , , , , , , , , , , , , , , , , , , , , , , , , , , , , , , , , , , , , , , , , , , , , , , , , , , , , , , , ,
162.545543257086,178.530896394108,15.9853531370209,-56.0092584789861,246.727077924095,361.831346916672,342.858839614711,257.582184723381,167.958612115593,-170.538219825597,73.2800950600328,97.2581247655643, , , , , , , , , , , , , , , , , , , , , , , , , , , , , , , , , , , , , , , , , , , , , , , , , , , , , , , , , , , , ,
156.699837681478,170.020996849149,13.3211591676703,-54.1273471718002,235.856187728042,344.102517973166,326.683892739181,247.31828295676,161.53839215785,-163.360417265313,71.689339256904,91.6710780084097, , , , , , , , , , , , , , , , , , , , , , , , , , , , , , , , , , , , , , , , , , , , , , , , , , , , , , , , , , , , ,
152.363015894342,162.307359649305,9.94434375496194,-51.8179205281755,227.166015788792,328.430024272586,310.182296915962,238.900000119413,154.806974196253,-157.335187771823,71.2093360696902,86.1258517021334, , , , , , , , , , , , , , , , , , , , , , , , , , , , , , , , , , , , , , , , , , , , , , , , , , , , , , , , , , , , ,
147.09865150482,154.386546688523,7.28789518370256,-49.0971859774567,215.917175608205,312.896552202372,293.389435481753,227.090717776878,147.721693246487,-150.742599096671,69.9053781605586,80.8372209361127, , , , , , , , , , , , , , , , , , , , , , , , , , , , , , , , , , , , , , , , , , , , , , , , , , , , , , , , , , , , ,
140.965807651052,145.002918736896,4.03711108584348,-45.9991695719073,206.108332141487,297.61436774098,276.489306897567,217.435344183201,141.000934369653,-142.984363193974,68.4643482826043,74.5200149113698, , , , , , , , , , , , , , , , , , , , , , , , , , , , , , , , , , , , , , , , , , , , , , , , , , , , , , , , , , , , ,
135.983249309885,136.913289138563,0.930039828678265,-42.5738745262558,194.572960763076,282.672612665238,258.979594480794,208.476896346976,133.491623359775,-136.448269224224,67.5266047406032,68.9216644836208, , , , , , , , , , , , , , , , , , , , , , , , , , , , , , , , , , , , , , , , , , , , , , , , , , , , , , , , , , , , ,
128.175979263919,128.200463621303,0.0244843573835745,-38.8844416426776,182.598486139,267.090573572492,240.972335075481,195.890916960358,126.735547268618,-128.18822144261,64.0757474532675,64.1124739893431, , , , , , , , , , , , , , , , , , , , , , , , , , , , , , , , , , , , , , , , , , , , , , , , , , , , , , , , , , , , ,
123.280447418232,119.534305845459,-3.7461415727739,-35.0035384470273,171.552350982743,251.032020343527,224.623539973315,186.776901425468,119.077846869772,-121.407376631845,63.5132944955031,57.8940821363425, , , , , , , , , , , , , , , , , , , , , , , , , , , , , , , , , , , , , , , , , , , , , , , , , , , , , , , , , , , , ,
114.274039690121,111.579362506509,-2.6946771836124,-31.0092346938118,160.131618559273,237.208472914779,208.707780113976,177.244356900623,112.012878259609,-112.926701098314,58.4843584368665,54.4423426614482, , , , , , , , , , , , , , , , , , , , , , , , , , , , , , , , , , , , , , , , , , , , , , , , , , , , , , , , , , , , ,
108.961298993263,103.043673980442,-5.91762501282129,-26.9806161083752,149.33509657547,223.856210501982,193.326640982393,165.267155488104,104.288341942412,-106.002486486852,57.439462003042,48.5630244838103, , , , , , , , , , , , , , , , , , , , , , , , , , , , , , , , , , , , , , , , , , , , , , , , , , , , , , , , , , , , ,
100.008049183446,95.7914233169351,-4.21662586651153,-22.993367700711,138.359228559792,210.95849731038,178.450469769342,156.089598669837,96.1295953458693,-97.8997362501903,52.1123375249789,45.7873987252118, , , , , , , , , , , , , , , , , , , , , , , , , , , , , , , , , , , , , , , , , , , , , , , , , , , , , , , , , , , , ,
91.7712303500083,87.9879367877243,-3.78329356228432,-19.1155486964362,128.996488394919,195.478887361303,161.659342022371,146.366875217893,88.0597924961863,-89.8795835688659,47.7772619561463,42.10232161272, , , , , , , , , , , , , , , , , , , , , , , , , , , , , , , , , , , , , , , , , , , , , , , , , , , , , , , , , , , , ,
81.9341348685101,81.2793601674616,-0.654774701048904,-15.4037932564499,118.337458586911,182.853325499715,148.011498564552,134.914264016513,79.6129873112008,-81.6067475179854,41.2944547847795,40.3122927332064, , , , , , , , , , , , , , , , , , , , , , , , , , , , , , , , , , , , , , , , , , , , , , , , , , , , , , , , , , , , ,
74.3367126507488,74.6229915134321,0.286278862682867,-11.9001907922047,108.743761338639,171.065172390572,135.066961392963,124.689346549699,72.269049807385,-74.47985208209,37.025216894033,37.4546351880575, , , , , , , , , , , , , , , , , , , , , , , , , , , , , , , , , , , , , , , , , , , , , , , , , , , , , , , , , , , , ,
65.6690860620306,68.2085498023187,2.53946374028773,-8.63010161521995,99.0969790559487,159.625520530659,122.823962103295,113.100802169241,63.4001744577218,-66.9388179321743,31.5648111608714,35.3740067713033, , , , , , , , , , , , , , , , , , , , , , , , , , , , , , , , , , , , , , , , , , , , , , , , , , , , , , , , , , , , ,
59.4429452437636,62.9355643249978,3.49261908123374,-5.60113120621613,88.7589492360001,145.327795076822,107.821537554006,101.917318971708,55.9259594508168,-61.1892547843803,27.9751630812649,33.2140917031158, , , , , , , , , , , , , , , , , , , , , , , , , , , , , , , , , , , , , , , , , , , , , , , , , , , , , , , , , , , , ,
51.4510332692144,56.5234784380098,5.072445168795,-2.80341423973407,79.3316513083957,134.025477017947,96.7445349800863,90.7753061338281,48.0467578920409,-53.9872558536117,23.1892940502097,30.7979618034024, , , , , , , , , , , , , , , , , , , , , , , , , , , , , , , , , , , , , , , , , , , , , , , , , , , , , , , , , , , , ,
45.271706997515,52.1344480044907,6.86274100697529,-0.21124920375626,69.2089171345248,123.483487195379,86.3217047751298,80.3411772257756,39.241405969042,-48.7030775010025,19.2044829952699,29.498594505733, , , , , , , , , , , , , , , , , , , , , , , , , , , , , , , , , , , , , , , , , , , , , , , , , , , , , , , , , , , , ,
38.0985561909923,46.6309181049967,8.532361914004,2.21400837922253,59.2513502600026,112.877832197126,73.9628050700369,69.7336688263238,30.5188986249765,-42.3647371479941,14.7830971384942,27.5816400095004, , , , , , , , , , , , , , , , , , , , , , , , , , , , , , , , , , , , , , , , , , , , , , , , , , , , , , , , , , , , ,
32.1235549267565,42.1934365773653,10.0698816506085,4.52001284579379,51.5674247031695,99.5813438685325,63.2256248832958,59.4924313618595,22.1706427616553,-37.1584957520605,11.026836638074,26.1316591139869, , , , , , , , , , , , , , , , , , , , , , , , , , , , , , , , , , , , , , , , , , , , , , , , , , , , , , , , , , , , ,
25.8829926629166,38.0082614377627,12.1252687748458,6.75877444143376,42.564949881615,89.8684013458771,54.3199046847661,50.2511259562962,14.0835118550421,-31.9456270503393,6.87886194403535,25.0667651063043, , , , , , , , , , , , , , , , , , , , , , , , , , , , , , , , , , , , , , , , , , , , , , , , , , , , , , , , , , , , ,
20.2348869163575,33.050001941759,12.8151150254012,8.98167700365995,33.1080626049911,80.4162130382835,42.8223933284543,40.6951219839967,6.14194431309181,-26.6424444290579,3.70988594547815,22.9325584835801, , , , , , , , , , , , , , , , , , , , , , , , , , , , , , , , , , , , , , , , , , , , , , , , , , , , , , , , , , , , ,
14.1422830741001,29.7660000979463,15.6237170238458,11.2346083442523,25.9899147162769,69.4427991429831,33.4602432537363,32.5305820599366,-1.23915426378326,-21.9541415860229,-0.740716974872853,22.6948585608961, , , , , , , , , , , , , , , , , , , , , , , , , , , , , , , , , , , , , , , , , , , , , , , , , , , , , , , , , , , , ,
6.9826509958021,24.7159710265077,17.7333200307053,11.7011127362715,16.9611618887507,58.5517215331598,25.1815724350797,23.8459291870913,-8.21773567257587,-15.8493110111545,-5.3753345174516,21.2246455286066, , , , , , , , , , , , , , , , , , , , , , , , , , , , , , , , , , , , , , , , , , , , , , , , , , , , , , , , , , , , ,
1.1233523118034,21.2477802766892,20.1244279648854,11.7011127362715,11.8748034427061,49.7673539469508,13.461638697514,15.5046227206473,-14.3768283835149,-11.1855662942459,-9.50053782654102,20.6861041207873, , , , , , , , , , , , , , , , , , , , , , , , , , , , , , , , , , , , , , , , , , , , , , , , , , , , , , , , , , , , ,
-3.21082281929496,17.2070692994949,20.4178921187895,11.7011127362715,8.27328760055218,40.9305113462227,5.8607856690264,7.53399465281481,-20.2379286810838,-6.99812324009957,-11.8143574690422,18.8124807091422, , , , , , , , , , , , , , , , , , , , , , , , , , , , , , , , , , , , , , , , , , , , , , , , , , , , , , , , , , , , ,
-6.53451135749613,12.7933097033433,19.3278210608391,11.7011127362715,3.55902650559318,28.9611177953263,-4.71979643759551,0.0325192516298785,-25.53160596177,-3.1293991729232,-12.9311662091676,16.0605653820912, , , , , , , , , , , , , , , , , , , , , , , , , , , , , , , , , , , , , , , , , , , , , , , , , , , , , , , , , , , , ,
-10.3981728394899,8.79062700153089,19.1887998410205,11.7011127362715,3.5166678925666,20.5671016109092,-13.6671077989254,-7.33054435714089,-29.8508906457424,0.803772918979917,-14.7934863402552,13.9897134212757, , , , , , , , , , , , , , , , , , , , , , , , , , , , , , , , , , , , , , , , , , , , , , , , , , , , , , , , , , , , ,
-12.8185525064109,3.51590058639842,16.334453092809,11.7011127362715,-4.18342806859727,12.2248522485148,-23.3159761918305,-14.4826752609279,-34.0247637942199,4.65132596000663,-14.5765027996099,9.92517683960373, , , , , , , , , , , , , , , , , , , , , , , , , , , , , , , , , , , , , , , , , , , , , , , , , , , , , , , , , , , , ,
-17.3600362685349,-1.55900443263263,15.8010318359019,13.299659964512,-3.50714080382568,0.819136918250479,-33.2957820918464,-21.2184618447922,-37.4239561954488,9.45952035058416,-16.5805340522184,7.12101370163467, , , , , , , , , , , , , , , , , , , , , , , , , , , , , , , , , , , , , , , , , , , , , , , , , , , , , , , , , , , , ,
-21.3872724834384,-6.73437634818181,14.6528961352562,15.8373377514158,-5.69949573452004,-8.0896604380473,-42.7925464761864,-28.1523881123683,-40.4612233824778,14.0608244158105,-18.0200843093473,3.95925989353723, , , , , , , , , , , , , , , , , , , , , , , , , , , , , , , , , , , , , , , , , , , , , , , , , , , , , , , , , , , , ,
-25.1090203578517,-11.7527780458523,13.356242311999,18.1684029832707,-11.186292948326,-16.4532563946836,-53.0459465574308,-34.9134688859099,-42.9648772256855,18.4308992018524,-19.2326313349254,0.801732133073408, , , , , , , , , , , , , , , , , , , , , , , , , , , , , , , , , , , , , , , , , , , , , , , , , , , , , , , , , , , , ,
-28.1628320807051,-16.6686563818344,11.4941756988704,20.4056742075675,-10.7948874181106,-27.5478750126313,-62.9475823743288,-41.719961634747,-45.5596349325066,22.4157442312702,-19.8285038897878,-2.58724034148199, , , , , , , , , , , , , , , , , , , , , , , , , , , , , , , , , , , , , , , , , , , , , , , , , , , , , , , , , , , , ,
-31.4175333898778,-20.8921386570554,10.525394732822,22.3878237577128,-11.8667602863481,-36.7467641203646,-72.6656992535681,-48.8553312551843,-47.3265150844983,26.154836023467,-20.9714640613499,-5.18337196211666, , , , , , , , , , , , , , , , , , , , , , , , , , , , , , , , , , , , , , , , , , , , , , , , , , , , , , , , , , , , ,
-34.7370780189157,-25.356751543068,9.3803264758473,24.0695373741187,-19.3590325201314,-45.212737684387,-83.3027382942733,-56.0151970458204,-49.3967674195792,30.0469147809922,-22.0587022473815,-7.98821253361032, , , , , , , , , , , , , , , , , , , , , , , , , , , , , , , , , , , , , , , , , , , , , , , , , , , , , , , , , , , , ,
-36.909601035006,-29.4752327983915,7.43436823661415,25.417967191212,-19.7627393275006,-56.0204797157313,-91.8865587284707,-63.1194442878975,-51.3297489366048,33.1924169166991,-22.1719846358101,-11.0204322808886, , , , , , , , , , , , , , , , , , , , , , , , , , , , , , , , , , , , , , , , , , , , , , , , , , , , , , , , , , , , ,
-40.1380959651541,-33.2848329537161,6.85326301143768,26.4719489767377,-20.5979980120114,-65.1054169778472,-102.971204622246,-70.8252380482216,-53.5132565364121,36.7114644594355,-23.4956794882959,-13.2157849711392, , , , , , , , , , , , , , , , , , , , , , , , , , , , , , , , , , , , , , , , , , , , , , , , , , , , , , , , , , , , ,
-42.2957724001533,-36.7960833379967,5.4996890621562,27.1657922344276,-24.5181058182737,-73.4466522167331,-111.453752041132,-78.5671234291859,-56.1186453978225,39.5459278690754,-23.8977307311548,-15.6481971379202, , , , , , , , , , , , , , , , , , , , , , , , , , , , , , , , , , , , , , , , , , , , , , , , , , , , , , , , , , , , ,
-45.7971002437837,-39.8687095168403,5.928390726943,27.5118459346661,-30.7944998226794,-83.1476449049738,-119.84521750453,-86.0869601512722,-58.4752940223541,42.8329048803124,-25.8627454853634,-16.9701593949486, , , , , , , , , , , , , , , , , , , , , , , , , , , , , , , , , , , , , , , , , , , , , , , , , , , , , , , , , , , , ,
-48.888221530428,-42.0087877884829,6.87943374194469,27.714498823863,-32.4682277740412,-91.9327099009712,-129.375517357722,-94.1951017404965,-61.3619643066571,45.4485046594559,-27.8838276361864,-17.5646770232691, , , , , , , , , , , , , , , , , , , , , , , , , , , , , , , , , , , , , , , , , , , , , , , , , , , , , , , , , , , , ,
-52.6988670112319,-44.546658494771,8.15220851646051,27.8391947936769,-34.5031158203135,-99.6747260424774,-136.55688341827,-102.248468726371,-64.8461305236824,48.6227627530018,-30.4255377638462,-18.1972249891552, , , , , , , , , , , , , , , , , , , , , , , , , , , , , , , , , , , , , , , , , , , , , , , , , , , , , , , , , , , , ,
-56.5052348226008,-46.6923374880302,9.81289733457029,27.5634393785701,-36.8484043349372,-107.26742381762,-143.230262140525,-109.809062161937,-68.2631511781098,51.5987861553159,-33.1590660785856,-18.4397200767299, , , , , , , , , , , , , , , , , , , , , , , , , , , , , , , , , , , , , , , , , , , , , , , , , , , , , , , , , , , , ,
-59.6696827146879,-48.7782197119296,10.8914630027579,26.9881213319299,-41.4615847209822,-115.248563961963,-150.786281780431,-117.763067119528,-72.6071554304859,54.2239512133091,-35.2805728587229,-18.9433783545858, , , , , , , , , , , , , , , , , , , , , , , , , , , , , , , , , , , , , , , , , , , , , , , , , , , , , , , , , , , , ,
-64.0155933922751,-49.8014155463969,14.2141778458778,26.2599047369572,-47.0560265077027,-122.711662151166,-156.259472511472,-125.477229397622,-76.461750322304,56.9085044693364,-39.1148856190765,-17.7936188502595, , , , , , , , , , , , , , , , , , , , , , , , , , , , , , , , , , , , , , , , , , , , , , , , , , , , , , , , , , , , ,
-68.8302937203192,-51.5481707972843,17.2821229230346,25.5828087061902,-49.3324577184056,-129.107205590735,-160.839390775408,-132.745042822564,-81.0933901109658,60.1892322588022,-43.0562083216769,-17.1330239371248, , , , , , , , , , , , , , , , , , , , , , , , , , , , , , , , , , , , , , , , , , , , , , , , , , , , , , , , , , , , ,
-73.1380762323436,-53.412717292722,19.7253589396212,24.8640205408569,-51.6470482767174,-134.660363206606,-165.578338272652,-139.586833308369,-85.97593535424,63.2753967625332,-46.4317175859824,-16.8436791765504, , , , , , , , , , , , , , , , , , , , , , , , , , , , , , , , , , , , , , , , , , , , , , , , , , , , , , , , , , , , ,
-78.0605085359404,-55.1454763104084,22.9150322255316,24.2793782500038,-53.9345693353526,-139.627954549631,-169.458847230252,-145.904731955022,-90.2211630439541,66.6029924231748,-50.487770380736,-16.1152220424383, , , , , , , , , , , , , , , , , , , , , , , , , , , , , , , , , , , , , , , , , , , , , , , , , , , , , , , , , , , , ,
-81.8828257795669,-57.1057130381093,24.7771127414573,23.7742792646041,-56.1330378948635,-140.026385708626,-171.829096172151,-151.434111266153,-94.8582467034788,69.4942694088385,-53.3299692605121,-16.164300148326, , , , , , , , , , , , , , , , , , , , , , , , , , , , , , , , , , , , , , , , , , , , , , , , , , , , , , , , , , , , ,
-85.973304867795,-58.2862981237839,27.6870067440107,23.4428654675398,-58.1857624570341,-140.026385708626,-174.499175634471,-156.35838517029,-99.2947630877561,72.1298014957898,-56.8301558059028,-15.2996456898866, , , , , , , , , , , , , , , , , , , , , , , , , , , , , , , , , , , , , , , , , , , , , , , , , , , , , , , , , , , , ,
-90.1183490056709,-59.9666680260392,30.1516809796314,23.2617089209936,-60.0434188122855,-140.026385708626,-176.526173065647,-160.258411979711,-103.368753807354,75.0425085158555,-60.1350149926512,-14.9074935232039, , , , , , , , , , , , , , , , , , , , , , , , , , , , , , , , , , , , , , , , , , , , , , , , , , , , , , , , , , , , ,
-93.9109697086663,-62.1273718621378,31.7835978465281,23.1882510956867,-61.6662775409991,-140.026385708626,-177.068443522991,-163.594007722899,-106.654696581898,78.0191707854024,-62.8472837775972,-15.1718870078048, , , , , , , , , , , , , , , , , , , , , , , , , , , , , , , , , , , , , , , , , , , , , , , , , , , , , , , , , , , , ,
-97.0789409668993,-64.1851238279391,32.8938171389598,23.3420901028083,-63.026439074564,-140.026385708626,-179.157534766999,-166.011082141659,-109.373543727397,80.6320323974196,-64.9863790529296,-15.6456533444896, , , , , , , , , , , , , , , , , , , , , , , , , , , , , , , , , , , , , , , , , , , , , , , , , , , , , , , , , , , , ,
-100.129541394274,-66.2735978876194,33.8559435066543,23.5378730612961,-64.5856747826683,-140.026385708626,-179.074377593049,-167.495802167105,-111.62359128078,83.2015696409471,-66.9927424504642,-16.2088271904825, , , , , , , , , , , , , , , , , , , , , , , , , , , , , , , , , , , , , , , , , , , , , , , , , , , , , , , , , , , , ,
-102.659870490324,-68.3213149511934,34.3385555391297,24.1112150763565,-66.5379508530542,-140.026385708626,-180.130665439566,-168.435140254275,-113.133295114467,85.4905927207589,-68.4992130147266,-16.9913797060318, , , , , , , , , , , , , , , , , , , , , , , , , , , , , , , , , , , , , , , , , , , , , , , , , , , , , , , , , , , , ,
-104.661399433496,-68.8187821799857,35.8426172535097,24.4841433696194,-67.0379822765885,-140.026385708626,-180.205431880305,-168.520435387783,-113.902127155465,86.7400908067411,-70.2520083435028,-16.488082463238, , , , , , , , , , , , , , , , , , , , , , , , , , , , , , , , , , , , , , , , , , , , , , , , , , , , , , , , , , , , ,
-105.606158555776,-70.3172276588169,35.2889308969583,25.3174604520988,-67.3484119708932,-140.026385708626,-181.196170759232,-168.035276211785,-113.686084421883,87.9616931072966,-70.4475447263669,-17.5141483809293, , , , , , , , , , , , , , , , , , , , , , , , , , , , , , , , , , , , , , , , , , , , , , , , , , , , , , , , , , , , ,
-106.152871546085,-71.7698516484783,34.3830198976064,25.9440465932855,-67.494313969333,-140.026385708626,-181.167972611688,-166.807156948093,-112.761865272116,88.9613615972821,-70.2679457218458,-18.6934158754359, , , , , , , , , , , , , , , , , , , , , , , , , , , , , , , , , , , , , , , , , , , , , , , , , , , , , , , , , , , , ,
-106.632002176181,-72.8396339186806,33.7923682575002,26.4774288611096,-67.5060799417517,-140.026385708626,-182.909261288822,-165.165359952366,-111.199053654603,89.7358180474313,-70.2121852168407,-19.5236328305902, , , , , , , , , , , , , , , , , , , , , , , , , , , , , , , , , , , , , , , , , , , , , , , , , , , , , , , , , , , , ,
-106.499889598712,-73.5153203208297,32.9845692778821,26.6079047424963,-67.4156850178296,-140.026385708626,-184.581338309674,-163.499597777071,-109.013860075162,90.0076049597713,-69.7422294382972,-20.2653755214737, , , , , , , , , , , , , , , , , , , , , , , , , , , , , , , , , , , , , , , , , , , , , , , , , , , , , , , , , , , , ,
-106.044039223029,-74.0385181163324,32.005521106696,27.397078808753,-67.2530521777915,-140.026385708626,-186.639773365332,-161.691364949803,-106.451323393844,90.0412786696809,-69.0247801648623,-21.0164985048182, , , , , , , , , , , , , , , , , , , , , , , , , , , , , , , , , , , , , , , , , , , , , , , , , , , , , , , , , , , , ,
-105.373210039539,-73.7582260258732,31.6149840136653,27.202935534332,-67.043229312639,-140.026385708626,-187.979206134448,-159.833108620396,-103.26193777705,89.5657180327064,-68.4940970266021,-21.0716210061039, , , , , , , , , , , , , , , , , , , , , , , , , , , , , , , , , , , , , , , , , , , , , , , , , , , , , , , , , , , , ,
-104.554634724019,-73.7490895595291,30.8055451644895,26.870835651955,-66.8049182950265,-140.026385708626,-190.216628641806,-157.900990610179,-100.107736990271,89.1518621417744,-67.6800899442542,-21.4717721975198, , , , , , , , , , , , , , , , , , , , , , , , , , , , , , , , , , , , , , , , , , , , , , , , , , , , , , , , , , , , ,
-104.096086001236,-73.5116087723853,30.5844772288501,26.4298879873789,-66.5505651989357,-140.026385708626,-192.654773828448,-155.913701173916,-96.602261022845,88.8038473868109,-67.3402816150429,-21.4635657717676, , , , , , , , , , , , , , , , , , , , , , , , , , , , , , , , , , , , , , , , , , , , , , , , , , , , , , , , , , , , ,
-103.618601155778,-72.7965372433346,30.822063912443,26.1809012975315,-66.2878530028985,-140.026385708626,-193.856406585363,-154.343404158583,-93.3136919942685,88.2075691995567,-67.2203325341105,-20.9872366654458, , , , , , , , , , , , , , , , , , , , , , , , , , , , , , , , , , , , , , , , , , , , , , , , , , , , , , , , , , , , ,
-102.817341168795,-72.4302463234199,30.3870948453744,26.0833030915486,-66.0221468480176,-140.026385708626,-193.856406585363,-152.756167932615,-89.6047411649889,87.6237937461076,-66.6022180070845,-21.0215757390227, , , , , , , , , , , , , , , , , , , , , , , , , , , , , , , , , , , , , , , , , , , , , , , , , , , , , , , , , , , , ,
-102.420000008272,-71.970538147391,30.4494618608806,25.6664080181302,-65.7771683048751,-140.026385708626,-193.856406585363,-151.555019289857,-86.6797019804028,87.1952690778318,-66.4347309345763,-20.7605381432551, , , , , , , , , , , , , , , , , , , , , , , , , , , , , , , , , , , , , , , , , , , , , , , , , , , , , , , , , , , , ,
-101.615461932469,-71.6294057701629,29.986056162306,25.2987304488535,-67.8415055263012,-140.026385708626,-193.856406585363,-150.865569627896,-84.0073624629061,86.6224338513164,-65.8007590473876,-20.8216748039284, , , , , , , , , , , , , , , , , , , , , , , , , , , , , , , , , , , , , , , , , , , , , , , , , , , , , , , , , , , , ,
-101.145715812929,-71.6331091466961,29.5126066662322,24.8106106670463,-69.9273101911143,-140.026385708626,-193.856406585363,-150.494742392638,-81.8627969661731,86.3894124798128,-65.3291612395805,-21.0602512402319, , , , , , , , , , , , , , , , , , , , , , , , , , , , , , , , , , , , , , , , , , , , , , , , , , , , , , , , , , , , ,
-100.410314853092,-71.8695558323763,28.5407590207151,24.6422960926045,-72.0263380955897,-140.026385708626,-193.856406585363,-150.475862314325,-80.030574137227,86.1399353427344,-64.4755369369035,-21.6643984058305, , , , , , , , , , , , , , , , , , , , , , , , , , , , , , , , , , , , , , , , , , , , , , , , , , , , , , , , , , , , ,
-99.6370499052702,-72.4884771522712,27.1485727529986,24.2793550414259,-74.0340026727813,-141.849044822368,-193.856406585363,-150.445345337618,-78.2645222902271,86.0627635287711,-63.3928113291345,-22.6699521996363, , , , , , , , , , , , , , , , , , , , , , , , , , , , , , , , , , , , , , , , , , , , , , , , , , , , , , , , , , , , ,
-98.8677492188652,-73.318340982539,25.5494082363258,23.5888870967961,-76.1634741357549,-144.188521116767,-194.382461200705,-151.056905562597,-77.5105739904803,86.0930451007025,-62.2085787275955,-23.8844663731066, , , , , , , , , , , , , , , , , , , , , , , , , , , , , , , , , , , , , , , , , , , , , , , , , , , , , , , , , , , , ,
-97.874170555217,-74.6782990860456,23.1958714691711,23.313276170789,-78.0030576080366,-146.047048648516,-196.343369661787,-151.901360758076,-77.3185249349734,86.2762348206317,-60.5350210121941,-25.7412138084372, , , , , , , , , , , , , , , , , , , , , , , , , , , , , , , , , , , , , , , , , , , , , , , , , , , , , , , , , , , , ,
-96.1334670595552,-76.4469863669197,19.6864806926351,22.7464008827327,-80.1620526208435,-147.882197223085,-198.287517278595,-152.932750062772,-77.5633599391991,86.2902267132379,-57.9099738760952,-28.3802528371423, , , , , , , , , , , , , , , , , , , , , , , , , , , , , , , , , , , , , , , , , , , , , , , , , , , , , , , , , , , , ,
-93.2539473990656,-78.6407050285536,14.6132423705117,22.6349384921204,-81.9692485587736,-148.987200234025,-199.861178454564,-154.101966044395,-78.189794478751,85.94732621381,-53.9335948847887,-32.0137313290209, , , , , , , , , , , , , , , , , , , , , , , , , , , , , , , , , , , , , , , , , , , , , , , , , , , , , , , , , , , , ,
-91.1528375605692,-81.1180408073818,10.034796753187,22.0810834455158,-83.9736297433305,-150.197702692509,-201.526212495909,-155.359470163556,-79.1306422674484,86.1354391839759,-50.5938171568781,-35.5416220270974, , , , , , , , , , , , , , , , , , , , , , , , , , , , , , , , , , , , , , , , , , , , , , , , , , , , , , , , , , , , ,
-87.2847877587455,-83.8389703081331,3.44581745061202,21.8219232841192,-85.9944008162766,-151.259923813027,-203.130463038785,-156.657917021912,-80.3119846241384,85.5618790334397,-45.3653026046788,-40.1965764287605, , , , , , , , , , , , , , , , , , , , , , , , , , , , , , , , , , , , , , , , , , , , , , , , , , , , , , , , , , , , ,
-85.5070297835202,-86.7957574467076,-1.28872766318781,21.414279513523,-86.6822420585624,-151.559348255471,-204.39818355061,-157.954600009531,-81.6587154077261,86.1513936151143,-42.1091510601662,-44.0422425549477, , , , , , , , , , , , , , , , , , , , , , , , , , , , , , , , , , , , , , , , , , , , , , , , , , , , , , , , , , , , ,
-82.1816110341816,-89.3583631830891,-7.17675214890788,21.0129338299401,-88.4209593385153,-151.779424753291,-205.612463103751,-159.213528138543,-83.099997688148,85.7699871086357,-37.5024294426369,-48.2675576659984, , , , , , , , , , , , , , , , , , , , , , , , , , , , , , , , , , , , , , , , , , , , , , , , , , , , , , , , , , , , ,
-79.9448299382157,-92.0855132861737,-12.1406833479583,20.9373710846317,-89.4494057123392,-151.228974308443,-206.753964786136,-160.406889839231,-84.5740687085519,86.0151716121951,-33.9020732951287,-52.1130983170659, , , , , , , , , , , , , , , , , , , , , , , , , , , , , , , , , , , , , , , , , , , , , , , , , , , , , , , , , , , , ,
-78.7477895888884,-94.7628523289125,-16.0150627400245,21.1030248726594,-89.68658873523,-151.338943418099,-207.476903498339,-161.515723409686,-86.0318755975951,86.7553209589009,-31.3663634244319,-55.3889575344685, , , , , , , , , , , , , , , , , , , , , , , , , , , , , , , , , , , , , , , , , , , , , , , , , , , , , , , , , , , , ,
-78.7949085127897,-96.3450512145295,-17.5501427017402,21.25988278726,-90.1905739355309,-150.766316608292,-208.773669106388,-162.529754380939,-87.4391968745651,87.56997986366,-30.6223829055247,-56.9475969581348, , , , , , , , , , , , , , , , , , , , , , , , , , , , , , , , , , , , , , , , , , , , , , , , , , , , , , , , , , , , ,
-79.5240134140395,-98.5166188212823,-18.9926054072432,21.437251595399,-90.6243214980678,-149.685611811306,-209.508535381985,-163.446484825203,-88.7771203462642,89.0203161176613,-30.2657040033981,-58.7546121142627, , , , , , , , , , , , , , , , , , , , , , , , , , , , , , , , , , , , , , , , , , , , , , , , , , , , , , , , , , , , ,
-80.5163464793414,-99.846189343468,-19.329842864127,22.7930195020985,-90.7501826957427,-148.88707808758,-210.525730261777,-164.269685496662,-90.0409438922131,90.1812679114051,-30.5932518076072,-59.5880161037975, , , , , , , , , , , , , , , , , , , , , , , , , , , , , , , , , , , , , , , , , , , , , , , , , , , , , , , , , , , , ,
-82.3965106647803,-100.529028273364,-18.1325176085842,23.5940808974725,-90.3257225328866,-148.150565881578,-211.226778686737,-165.007466003443,-91.2377217334027,91.4627694690727,-32.1319965280981,-59.3307729409742, , , , , , , , , , , , , , , , , , , , , , , , , , , , , , , , , , , , , , , , , , , , , , , , , , , , , , , , , , , , ,
-84.7905179936781,-101.389300468825,-16.5987824751474,25.2009619756165,-89.5120275204042,-147.282836293777,-212.00599449272,-165.67010615692,-92.3827907433458,93.089909231252,-34.0958677592653,-58.9940414719863, , , , , , , , , , , , , , , , , , , , , , , , , , , , , , , , , , , , , , , , , , , , , , , , , , , , , , , , , , , , ,
-87.3122455284832,-101.091368970479,-13.779123441996,26.4180232128779,-88.4926322166738,-147.07414208982,-213.008210656182,-166.267835382996,-93.4956827080827,94.2018072494814,-36.7665610432436,-57.4352462062373, , , , , , , , , , , , , , , , , , , , , , , , , , , , , , , , , , , , , , , , , , , , , , , , , , , , , , , , , , , , ,
-90.4905244578789,-100.900449867324,-10.4099254094458,28.099139428359,-87.4551096170801,-146.943741538408,-213.820044206489,-166.808755097954,-94.595871437933,95.695487162602,-40.0402995242166,-55.655187638385, , , , , , , , , , , , , , , , , , , , , , , , , , , , , , , , , , , , , , , , , , , , , , , , , , , , , , , , , , , , ,
-93.5094397222519,-100.148568973699,-6.63912925144785,29.9292272548371,-86.1921382118163,-146.689217989291,-214.475601029481,-167.29711094502,-95.6988213984444,96.829004347976,-43.435155235402,-53.3938491125736, , , , , , , , , , , , , , , , , , , , , , , , , , , , , , , , , , , , , , , , , , , , , , , , , , , , , , , , , , , , ,
-97.2160961351175,-98.5801996997562,-1.36410356463899,32.1172269547246,-84.3901865048194,-146.739065931696,-214.721851756175,-167.732121749622,-96.8127826070728,97.8981479174372,-47.9259962852393,-49.9721516321975, , , , , , , , , , , , , , , , , , , , , , , , , , , , , , , , , , , , , , , , , , , , , , , , , , , , , , , , , , , , ,
-100.785771576963,-97.8134860946723,2.97228548229024,34.4993989668616,-82.7376309172539,-146.645380445207,-214.91976822671,-168.107539880475,-97.9367008087863,99.299628835818,-51.8790285296266,-47.420600306191, , , , , , , , , , , , , , , , , , , , , , , , , , , , , , , , , , , , , , , , , , , , , , , , , , , , , , , , , , , , ,
-104.12375652284,-95.6490355191978,8.47472100364181,37.673536174453,-81.0505953163241,-146.577987331132,-214.971203215235,-168.412042597964,-99.0594818925404,99.8863960210193,-56.2992387632409,-43.5871572577779, , , , , , , , , , , , , , , , , , , , , , , , , , , , , , , , , , , , , , , , , , , , , , , , , , , , , , , , , , , , ,
-107.333249831261,-94.1598575045583,13.1733923267024,40.6831796023981,-78.9716626145883,-146.771584870963,-214.70880901507,-168.630437661101,-100.160673446905,100.74655366791,-60.2533210789818,-40.4932325889279, , , , , , , , , , , , , , , , , , , , , , , , , , , , , , , , , , , , , , , , , , , , , , , , , , , , , , , , , , , , ,
-110.135725625952,-92.0339918714632,18.1017337544882,43.7172158726024,-77.3237186205012,-146.762265807019,-213.945758646871,-168.745524386916,-101.212420133234,101.084858748708,-64.11872969022,-36.9661290584875, , , , , , , , , , , , , , , , , , , , , , , , , , , , , , , , , , , , , , , , , , , , , , , , , , , , , , , , , , , , ,
-112.464565487314,-90.0735569697007,22.3910085176133,46.8835944928254,-75.0847949624374,-146.589649240576,-212.874872432274,-168.433358976122,-102.182347032869,101.269061228508,-67.4277870024639,-33.8412742260437, , , , , , , , , , , , , , , , , , , , , , , , , , , , , , , , , , , , , , , , , , , , , , , , , , , , , , , , , , , , ,
-114.164737182815,-88.8702596861128,25.2944774967018,50.0328052358993,-73.3013022258848,-145.915010267696,-211.615258098541,-168.292844255826,-103.036881670743,101.517498434464,-69.7296073397584,-31.7878910947055, , , , , , , , , , , , , , , , , , , , , , , , , , , , , , , , , , , , , , , , , , , , , , , , , , , , , , , , , , , , ,
-115.366903847972,-87.6927284016132,27.6741754463583,53.3700223755535,-70.6805580130235,-145.513029685081,-209.972656925977,-168.007646036284,-103.744496969902,101.529816124793,-71.5205396471651,-30.0092764776274, , , , , , , , , , , , , , , , , , , , , , , , , , , , , , , , , , , , , , , , , , , , , , , , , , , , , , , , , , , , ,
-115.992146955311,-86.5693993863544,29.4227475689562,56.5055861407955,-68.9061632169694,-144.810300416878,-207.486063288871,-167.528788385677,-104.278461060563,101.280773170833,-72.7074472621337,-28.5733259086991, , , , , , , , , , , , , , , , , , , , , , , , , , , , , , , , , , , , , , , , , , , , , , , , , , , , , , , , , , , , ,
-115.904847625337,-85.521074045856,30.383773579481,59.1752708016873,-66.9556362717779,-142.825782966263,-205.420376045681,-166.945162896568,-104.618869483547,100.712960835597,-73.1443106024092,-27.5686502331875, , , , , , , , , , , , , , , , , , , , , , , , , , , , , , , , , , , , , , , , , , , , , , , , , , , , , , , , , , , , ,
-115.441267784991,-84.560821647933,30.8804461370574,61.5747904815641,-65.0658751669322,-141.178058113911,-203.334355427276,-166.220475750471,-104.711824209862,100.001044716462,-73.1608569610241,-26.8401877554377, , , , , , , , , , , , , , , , , , , , , , , , , , , , , , , , , , , , , , , , , , , , , , , , , , , , , , , , , , , , ,
-114.533838818142,-83.6938552935902,30.8399835245514,63.5014341196873,-63.0930511152711,-139.610658943588,-201.097024820495,-165.149855777342,-104.638450508941,99.1138470558665,-72.6869111713467,-26.4269358845194, , , , , , , , , , , , , , , , , , , , , , , , , , , , , , , , , , , , , , , , , , , , , , , , , , , , , , , , , , , , ,
-113.124551761127,-82.9174615828301,30.2070901782966,65.0544410963344,-61.642890238301,-137.778835551053,-198.739145524361,-164.187388983662,-104.362362805168,98.021006671979,-71.6658209697119,-26.3551857022667, , , , , , , , , , , , , , , , , , , , , , , , , , , , , , , , , , , , , , , , , , , , , , , , , , , , , , , , , , , , ,
-111.365563012269,-82.2210828623128,29.1444801499555,66.127236556756,-60.175916943169,-135.908459689495,-196.23248624333,-163.015848754092,-103.742931684313,96.7933229372912,-70.2550215811121,-26.5383013561786, , , , , , , , , , , , , , , , , , , , , , , , , , , , , , , , , , , , , , , , , , , , , , , , , , , , , , , , , , , , ,
-109.590303885668,-81.5866410606684,28.0036628249995,66.531349047216,-59.0220198093047,-133.06268078292,-194.413916852607,-161.82004737681,-103.111526166023,95.5884724731687,-68.7969833553339,-26.7914891178344, , , , , , , , , , , , , , , , , , , , , , , , , , , , , , , , , , , , , , , , , , , , , , , , , , , , , , , , , , , , ,
-107.872569122895,-80.9891847402304,26.8833843826643,66.417635150122,-58.7620359726989,-131.048602671164,-192.337106372591,-160.670722887718,-102.284349256146,94.4308769315631,-67.3779767527797,-27.052900178783, , , , , , , , , , , , , , , , , , , , , , , , , , , , , , , , , , , , , , , , , , , , , , , , , , , , , , , , , , , , ,
-106.028703110554,-80.3979444760256,25.6307586345282,65.7402044583977,-58.3296604704688,-129.168614993826,-190.771350824424,-159.512557175646,-101.410296744439,93.2133237932903,-65.8297308725412,-27.3835929207486, , , , , , , , , , , , , , , , , , , , , , , , , , , , , , , , , , , , , , , , , , , , , , , , , , , , , , , , , , , , ,
-104.162599820263,-79.7778841696528,24.3847156506098,65.0371155768314,-58.4607686997868,-127.476020363415,-189.906211456761,-158.372356270596,-100.469662387161,91.9702419949582,-64.2736577354364,-27.6965842595215, , , , , , , , , , , , , , , , , , , , , , , , , , , , , , , , , , , , , , , , , , , , , , , , , , , , , , , , , , , , ,
-102.194594767399,-79.091813990828,23.1027807765703,63.4212009682306,-58.3782954524992,-126.384359247024,-189.431597413557,-157.275407905771,-99.3764773793937,90.6432043791137,-62.6486877719844,-27.9945166071288, , , , , , , , , , , , , , , , , , , , , , , , , , , , , , , , , , , , , , , , , , , , , , , , , , , , , , , , , , , , ,
-100.892707605031,-78.3030614774083,22.5896461276228,61.4658786564426,-59.281828242488,-125.961453375885,-189.322604436095,-156.244687031181,-98.4244813167121,89.5978845412203,-61.7411768663272,-27.8567076748927, , , , , , , , , , , , , , , , , , , , , , , , , , , , , , , , , , , , , , , , , , , , , , , , , , , , , , , , , , , , ,
-99.7539611252717,-77.3785852908747,22.3753758343967,59.7138388558676,-60.8305256804557,-126.013768754785,-189.554511346065,-155.300364911784,-97.5284451091057,88.5662732080736,-61.0646684798342,-27.501604728239, , , , , , , , , , , , , , , , , , , , , , , , , , , , , , , , , , , , , , , , , , , , , , , , , , , , , , , , , , , , ,
-98.6778766080125,-76.2923016886507,22.3855749193614,57.1893957133226,-62.035285068643,-126.020115705991,-190.085449613742,-154.459675111195,-96.7279987874382,87.485089148332,-60.531725763687,-26.9533633846446, , , , , , , , , , , , , , , , , , , , , , , , , , , , , , , , , , , , , , , , , , , , , , , , , , , , , , , , , , , , ,
-98.2238430327997,-75.0283153216669,23.1955277111325,55.1155007413715,-63.9301719872802,-126.984004240463,-190.860087722693,-153.737098698097,-96.0604753327552,86.6260791772337,-60.7096853719661,-25.9163938052672, , , , , , , , , , , , , , , , , , , , , , , , , , , , , , , , , , , , , , , , , , , , , , , , , , , , , , , , , , , , ,
-98.0706428282439,-73.5837083174477,24.4869345107958,52.3562299505064,-65.5817491840324,-128.396023221941,-191.814099367494,-153.144720152477,-95.5600615726796,85.8271755728462,-61.2787886695198,-24.5483869033259, , , , , , , , , , , , , , , , , , , , , , , , , , , , , , , , , , , , , , , , , , , , , , , , , , , , , , , , , , , , ,
-98.198320301076,-71.970538147391,26.2277821536846,49.3590887909311,-67.5551300743984,-130.075728564407,-192.878917542564,-152.69253227048,-95.2568948249901,85.0844292242338,-62.2130512273803,-22.8713779968531, , , , , , , , , , , , , , , , , , , , , , , , , , , , , , , , , , , , , , , , , , , , , , , , , , , , , , , , , , , , ,
-98.591361877222,-70.2167358715231,28.3746260056986,46.4041638187714,-69.7106104008588,-132.152933354462,-193.986266424509,-152.388482115602,-95.1760029528338,84.4040488743729,-63.4829939414603,-20.9210549329122, , , , , , , , , , , , , , , , , , , , , , , , , , , , , , , , , , , , , , , , , , , , , , , , , , , , , , , , , , , , ,
-99.2281689380174,-68.3657007677688,30.8624681702482,43.5650341875469,-71.2971613971098,-134.423378386838,-195.072064371327,-152.238157705798,-95.3360715964587,83.7969348528935,-65.0453185541328,-18.7516162987603, , , , , , , , , , , , , , , , , , , , , , , , , , , , , , , , , , , , , , , , , , , , , , , , , , , , , , , , , , , , ,
-100.082645814686,-66.4745552484198,33.6080905662659,40.9114104700395,-73.3421522876585,-136.831495528528,-196.079461104243,-152.24416711603,-95.7481223575954,83.2786005315533,-66.845368190476,-16.4332323410769, , , , , , , , , , , , , , , , , , , , , , , , , , , , , , , , , , , , , , , , , , , , , , , , , , , , , , , , , , , , ,
-101.125548696715,-64.6112135174243,36.5143351792904,38.5080783236179,-74.4242182801345,-139.255387083545,-196.960935058795,-152.40538170655,-96.4142487016032,82.8683811070701,-68.8199419380028,-14.0484391690669, , , , , , , , , , , , , , , , , , , , , , , , , , , , , , , , , , , , , , , , , , , , , , , , , , , , , , , , , , , , ,
-102.325467179328,-62.8505520942023,39.474915085125,36.4135670476118,-75.7409078512459,-141.601402132739,-197.679491547957,-152.716260945644,-97.3265726910701,82.5880096367654,-70.9001911322263,-11.6878185045387, , , , , , , , , , , , , , , , , , , , , , , , , , , , , , , , , , , , , , , , , , , , , , , , , , , , , , , , , , , , ,
-103.649293679507,-61.2699994274214,42.3792942520851,34.6783929605313,-76.9213532059862,-143.781035570608,-198.20908095068,-153.166457993206,-98.4665821161383,82.4596465534645,-73.014293965796,-9.44535258766809, , , , , , , , , , , , , , , , , , , , , , , , , , , , , , , , , , , , , , , , , , , , , , , , , , , , , , , , , , , , ,
-105.06212186991,-59.9448204129709,45.1173014569392,33.342843853059,-77.658667674698,-145.71408275452,-198.534411842507,-153.740843147679,-99.8049937910771,82.5034711414411,-75.0897116634248,-7.41375947801582, , , , , , , , , , , , , , , , , , , , , , , , , , , , , , , , , , , , , , , , , , , , , , , , , , , , , , , , , , , , ,
-106.526704093337,-58.9433585193229,47.5833455740135,32.434433612584,-77.9199061406384,-147.331466861506,-198.650347270343,-154.419982230779,-101.302243367578,82.7350313063303,-77.0550248336752,-5.68000647265465, , , , , , , , , , , , , , , , , , , , , , , , , , , , , , , , , , , , , , , , , , , , , , , , , , , , , , , , , , , , ,
-108.002817117445,-58.3225775714913,49.680239545953,31.7617053207478,-77.6925944815451,-148.577746203222,-198.561024232136,-155.18098578519,-102.909617230568,83.1626973444684,-78.8415283316989,-4.32116901276908, , , , , , , , , , , , , , , , , , , , , , , , , , , , , , , , , , , , , , , , , , , , , , , , , , , , , , , , , , , , ,
-109.447028911803,-58.1243633697639,51.322665542039,30.9500472714985,-76.9865939990842,-149.413228047238,-198.278747006316,-155.998546085532,-104.570950223273,83.785696140784,-80.3848472269211,-3.40084891386242, , , , , , , , , , , , , , , , , , , , , , , , , , , , , , , , , , , , , , , , , , , , , , , , , , , , , , , , , , , , ,
-110.813336262918,-58.3730647234539,52.4402715394641,31.3251746038191,-75.8348580520956,-149.815533369252,-197.82262895139,-156.845948097745,-106.224758191289,84.5932004931865,-81.6268039011913,-2.96639659199481, , , , , , , , , , , , , , , , , , , , , , , , , , , , , , , , , , , , , , , , , , , , , , , , , , , , , , , , , , , , ,
-112.054932936129,-58.4456529884078,53.6092799477211,32.0682262231608,-74.2928294873403,-149.780436037678,-197.216946869026,-157.695891940973,-107.806672444234,85.2502929622689,-82.8321064419252,-2.41818652034328, , , , , , , , , , , , , , , , , , , , , , , , , , , , , , , , , , , , , , , , , , , , , , , , , , , , , , , , , , , , ,
-113.127035276851,-58.6104502557788,54.5165850210713,33.1203380089061,-72.4363717250676,-149.321864925718,-196.489236950302,-158.521069350399,-109.25207239112,85.8687427663151,-83.821810148961,-2.04693261735371, , , , , , , , , , , , , , , , , , , , , , , , , , , , , , , , , , , , , , , , , , , , , , , , , , , , , , , , , , , , ,
-113.990349860146,-60.166437486346,53.8239123737996,34.4092153393509,-70.3583213164625,-148.471073768644,-195.668263411239,-159.294544894252,-110.498836519182,87.0783936732463,-83.9071311169728,-3.17126255627313, , , , , , , , , , , , , , , , , , , , , , , , , , , , , , , , , , , , , , , , , , , , , , , , , , , , , , , , , , , , ,
-114.61453171133,-62.0890777040076,52.5254540073218,35.8533589926738,-68.1639300899735,-147.275089955624,-194.782076407368,-159.990068620222,-111.490129904185,88.3518047076691,-83.5699928593258,-4.78181184834289, , , , , , , , , , , , , , , , , , , , , , , , , , , , , , , , , , , , , , , , , , , , , , , , , , , , , , , , , , , , ,
-114.980939391453,-64.341613650304,50.6393257411491,37.3668039920892,-65.9655797747501,-145.794606365601,-193.856406585363,-160.582479781147,-112.177121252631,89.6612765208791,-82.8101325663013,-6.85114395457741, , , , , , , , , , , , , , , , , , , , , , , , , , , , , , , , , , , , , , , , , , , , , , , , , , , , , , , , , , , , ,
-115.084168805837,-66.3701593600673,48.7140094457691,38.8638131409554,-63.8771830851308,-144.101471265314,-192.913605276231,-161.048348219655,-112.521485065302,90.7271640829524,-81.8990891258029,-8.82807495714908, , , , , , , , , , , , , , , , , , , , , , , , , , , , , , , , , , , , , , , , , , , , , , , , , , , , , , , , , , , , ,
-114.932167664168,-69.0934886351355,45.838679029032,40.2630596502339,-62.0086494465591,-142.275882851466,-191.972243926568,-161.366939387865,-112.497506651203,92.0128281496521,-80.3854233465999,-11.6274048030517, , , , , , , , , , , , , , , , , , , , , , , , , , , , , , , , , , , , , , , , , , , , , , , , , , , , , , , , , , , , ,
-114.545051618423,-71.970538147391,42.574513471032,41.4910004797481,-60.4607298257693,-140.403346412795,-191.047372254677,-161.521497165624,-112.093591815064,93.2577948829075,-78.5597825447277,-14.6980123381794, , , , , , , , , , , , , , , , , , , , , , , , , , , , , , , , , , , , , , , , , , , , , , , , , , , , , , , , , , , , ,
-113.95294399496,-74.9379783355006,39.0149656594593,42.4843175163955,-59.3204953221862,-138.571437043668,-190.151345457682,-161.500752135389,-111.313018232393,94.4454611652308,-76.4839548272098,-17.9615063380207, , , , , , , , , , , , , , , , , , , , , , , , , , , , , , , , , , , , , , , , , , , , , , , , , , , , , , , , , , , , ,
-113.19322945351,-76.9922361249625,36.2009933285475,43.1914441745353,-58.6576524893736,-136.866439045047,-189.295082885152,-161.300510035242,-110.173856259786,95.0927327892368,-74.6971113910289,-20.3956213982074, , , , , , , , , , , , , , , , , , , , , , , , , , , , , , , , , , , , , , , , , , , , , , , , , , , , , , , , , , , , ,
-112.307592368891,-79.9775758720431,32.3300164968471,43.5732889523276,-58.5218435627257,-135.369984593768,-188.4895952181,-160.925152737967,-108.708095759452,96.1425841204673,-72.3188044328689,-23.823779687598, , , , , , , , , , , , , , , , , , , , , , , , , , , , , , , , , , , , , , , , , , , , , , , , , , , , , , , , , , , , ,
-111.339135525146,-82.328689644019,29.0104458811263,43.6033193448687,-58.9410185216483,-134.15585258805,-187.747588040613,-160.388872351717,-106.960093504685,96.8339125845827,-70.174790703136,-26.6591218814463, , , , , , , , , , , , , , , , , , , , , , , , , , , , , , , , , , , , , , , , , , , , , , , , , , , , , , , , , , , , ,
-110.329780074826,-84.4433330294008,25.8864470454249,43.267188909635,-59.9209018428369,-133.287086341973,-187.084910988764,-159.716447791801,-104.984483657356,97.3865565521138,-68.1081135601255,-29.2784429919879, , , , , , , , , , , , , , , , , , , , , , , , , , , , , , , , , , , , , , , , , , , , , , , , , , , , , , , , , , , , ,
-109.318092471111,-87.1004133162395,22.2176791548709,42.5620909627248,-61.445507234765,-132.813544167668,-186.521591816817,-158.943367414308,-102.843686608839,98.2092528936755,-65.7678858129908,-32.4413670806843, , , , , , , , , , , , , , , , , , , , , , , , , , , , , , , , , , , , , , , , , , , , , , , , , , , , , , , , , , , , ,
-108.337685926726,-88.8092515649742,19.5284343617517,41.4960144168704,-63.4785803030161,-132.769935123474,-186.08220653067,-158.115116363098,-100.605137661436,98.5734687458506,-63.933060144239,-34.6404086016112, , , , , , , , , , , , , , , , , , , , , , , , , , , , , , , , , , , , , , , , , , , , , , , , , , , , , , , , , , , , ,
-107.416337274076,-91.042013212968,16.3743240611078,40.087048651595,-65.9657964055801,-133.174354020085,-185.795419976477,-157.285507263917,-98.3383601237845,99.2291752435224,-61.8953306675919,-37.3338445759301, , , , , , , , , , , , , , , , , , , , , , , , , , , , , , , , , , , , , , , , , , , , , , , , , , , , , , , , , , , , ,
-106.575862076198,-93.0066512255856,13.5692108506119,38.3628088118377,-68.8375351838403,-134.027341236393,-185.692683323276,-156.514053059576,-96.1120296259154,99.7912566508921,-60.0725364634049,-39.7187201874868, , , , , , , , , , , , , , , , , , , , , , , , , , , , , , , , , , , , , , , , , , , , , , , , , , , , , , , , , , , , ,
-105.832600546823,-94.6690663485954,11.1635341982271,36.3599364466965,-71.8439345101467,-135.31153659506,-185.80624575942,-155.862539211969,-93.9911955140239,100.250833447709,-58.498067372525,-41.7527660751841, , , , , , , , , , , , , , , , , , , , , , , , , , , , , , , , , , , , , , , , , , , , , , , , , , , , , , , , , , , , ,
-105.198185566932,-95.9991263628261,9.19905920410508,34.123527142837,-75.0846757613812,-136.99202455582,-186.166761481932,-155.391094391464,-92.0348189732162,100.598655964879,-57.1986223855183,-43.4000335793605, , , , , , , , , , , , , , , , , , , , , , , , , , , , , , , , , , , , , , , , , , , , , , , , , , , , , , , , , , , , ,
-104.680209788764,-96.9725149549798,7.7076948337843,31.7062965535852,-78.2928000726844,-139.017449667312,-186.800818577133,-155.154138137533,-90.2937579574618,100.826362371872,-56.1939523112744,-44.6324100605977, , , , , , , , , , , , , , , , , , , , , , , , , , , , , , , , , , , , , , , , , , , , , , , , , , , , , , , , , , , , ,
-104.282511055108,-97.5727932688693,6.70971778623821,29.1673197795928,-81.1470218633737,-141.321927907422,-187.728697857894,-155.196592929968,-88.809290905092,100.927652161989,-55.4961144206731,-45.4315377413155, , , , , , , , , , , , , , , , , , , , , , , , , , , , , , , , , , , , , , , , , , , , , , , , , , , , , , , , , , , , ,
-104.004984484065,-97.7933548565732,6.21162962749117,26.5702412635404,-84.3051124819059,-143.827721792611,-188.962613477039,-155.550704673531,-87.6122288349038,100.899169670319,-55.108307055778,-45.790862614541, , , , , , , , , , , , , , , , , , , , , , , , , , , , , , , , , , , , , , , , , , , , , , , , , , , , , , , , , , , , ,
-103.84301289334,-97.6389707146982,6.20404217864099,23.9809364753826,-87.2741478026516,-146.448603804915,-190.505607500838,-156.233737631382,-86.7226147902327,100.740991804019,-55.0235275359903,-45.7174642680286, , , , , , , , , , , , , , , , , , , , , , , , , , , , , , , , , , , , , , , , , , , , , , , , , , , , , , , , , , , , ,
-103.786732816208,-97.1266915985588,6.66004121764922,21.4647015100251,-90.2027354862267,-149.093804831105,-192.351177236811,-157.246710145553,-86.1499574256105,100.456712207384,-55.2233870169288,-45.2333251904548, , , , , , , , , , , , , , , , , , , , , , , , , , , , , , , , , , , , , , , , , , , , , , , , , , , , , , , , , , , , ,
-103.820416864017,-96.2859793605346,7.53443750348159,19.0831370550542,-92.8545129656731,-151.672422301071,-194.483622326222,-158.574232768386,-85.8939089988758,100.053198112276,-55.6774271837491,-44.3757709285265, , , , , , , , , , , , , , , , , , , , , , , , , , , , , , , , , , , , , , , , , , , , , , , , , , , , , , , , , , , , ,
-103.92226813627,-95.1580608153201,8.76420732094983,16.890965152812,-94.681552290154,-154.098131993917,-196.879021857153,-160.185416587067,-85.9452824036479,99.5401644757956,-56.3432377286101,-43.1969267471851, , , , , , , , , , , , , , , , , , , , , , , , , , , , , , , , , , , , , , , , , , , , , , , , , , , , , , , , , , , , ,
-104.064886677135,-93.7946115493853,10.2702751277492,14.9330624227617,-96.2623841068068,-156.293995897867,-199.506689720816,-162.035737906547,-86.287291516186,98.9297491132604,-57.167580902442,-41.762168210818, , , , , , , , , , , , , , , , , , , , , , , , , , , , , , , , , , , , , , , , , , , , , , , , , , , , , , , , , , , , ,
-104.216566019345,-92.2559444067694,11.9606216125751,13.242005001707,-97.8114880309123,-158.197085011638,-202.330900937691,-164.0696687754,-86.8968808911902,98.2362552130575,-58.08859381596,-40.1476613970971, , , , , , , , , , , , , , , , , , , , , , , , , , , , , , , , , , , , , , , , , , , , , , , , , , , , , , , , , , , , ,
-104.343418430316,-90.6088719647201,13.7345464655956,11.836391282612,-98.7932980379209,-159.762556768875,-205.312636848035,-166.223817279744,-87.7459968009365,97.4761451975184,-59.0389824479558,-38.4371627495622, , , , , , , , , , , , , , , , , , , , , , , , , , , , , , , , , , , , , , , , , , , , , , , , , , , , , , , , , , , , ,
-104.412159939579,-88.9243533551204,15.4878065844586,10.7201380677299,-99.4051404839926,-160.96677693189,-208.411087244313,-168.430290951045,-88.8026676043861,96.6682566473503,-59.9499832620191,-36.7182733853309, , , , , , , , , , , , , , , , , , , , , , , , , , , , , , , , , , , , , , , , , , , , , , , , , , , , , , , , , , , , ,
-104.393267833933,-87.2749811615411,17.1182866723917,9.88284587609034,-99.7140920407449,-161.809098753423,-211.584699760187,-170.620021892855,-90.0318195365788,95.8341244977376,-60.7557772531625,-35.0783472445747, , , , , , , , , , , , , , , , , , , , , , , , , , , , , , , , , , , , , , , , , , , , , , , , , , , , , , , , , , , , ,
-104.264180469953,-85.732365346641,18.5318151233119,9.30121874718672,-99.764644459482,-162.312033400525,-214.661826767339,-172.725872679794,-91.3958422098232,94.9982729082976,-61.3979977966326,-33.6002751116645, , , , , , , , , , , , , , , , , , , , , , , , , , , , , , , , , , , , , , , , , , , , , , , , , , , , , , , , , , , , ,
-104.012227907029,-84.3645289349746,19.6476989720539,8.94141973592046,-99.0200337472281,-162.519747177531,-217.362844446911,-174.639503142442,-92.8550081801274,94.1883784210022,-61.8299634395414,-32.3584149814603, , , , , , , , , , , , , , , , , , , , , , , , , , , , , , , , , , , , , , , , , , , , , , , , , , , , , , , , , , , , ,
-103.637019642762,-83.2334889110847,20.4035307316767,8.76215749580582,-98.5439828029361,-162.495042306832,-220.211750550127,-176.170041225529,-94.3679102054581,93.4352542769237,-62.0202751872193,-31.414979089704, , , , , , , , , , , , , , , , , , , , , , , , , , , , , , , , , , , , , , , , , , , , , , , , , , , , , , , , , , , , ,
-103.152031423885,-82.3931927155473,20.7588387083378,8.71823700968373,-97.7223718071101,-162.315148730583,-223.26512946294,-177.681413351715,-95.8920853761839,92.7726120697167,-61.9554350661116,-30.8171770036047, , , , , , , , , , , , , , , , , , , , , , , , , , , , , , , , , , , , , , , , , , , , , , , , , , , , , , , , , , , , ,
-102.58512448675,-81.8879083446583,20.6972161420912,8.76426295291126,-97.1895124099678,-162.066738158912,-226.181184503024,-178.912244677228,-97.3849496631716,92.2365164157045,-61.6411703144206,-30.5953461012835, , , , , , , , , , , , , , , , , , , , , , , , , , , , , , , , , , , , , , , , , , , , , , , , , , , , , , , , , , , , ,
-101.977740165965,-81.7510778189593,20.2266623470053,8.85815367061887,-96.7202904867819,-161.840580276043,-228.916933787297,-179.647129202152,-98.8050971134325,91.8644089924626,-61.1022012564852,-30.7622077359769, , , , , , , , , , , , , , , , , , , , , , , , , , , , , , , , , , , , , , , , , , , , , , , , , , , , , , , , , , , , ,
-101.382587569761,-82.0045971815946,19.3779903881658,8.96412806106574,-96.3909636423592,-161.726224392055,-231.431091361091,-180.271842139937,-100.1139512302,91.6935923756781,-60.3802889789633,-31.3133033967144, , , , , , , , , , , , , , , , , , , , , , , , , , , , , , , , , , , , , , , , , , , , , , , , , , , , , , , , , , , , ,
