-268.828700677735,49.3192573802195,318.147958057956,380.929611511896,463.555310692841,444.397901394277,286.196780917907,-51.9606483501518,-403.000220371244,109.754721648758,-293.488329367845,183.733607719088,37,563,563,0,563,563,563,563,563,45,563,563,5,215,656,0,569,571,576,659,69,11,11,652,227,219,756,0,742,741,744,748,209,132,212,751,525,469,1032,0,1013,1013,1055,978,632,416,266,1029,344,869,869,0,869,869,869,869,869,275,869,869,
-268.828700677735,49.3192573802195,318.147958057956,380.929611511896,463.555310692841,444.397901394277,286.196780917907,-51.9606483501518,-403.000220371244,109.754721648758,-293.488329367845,183.733607719088,651,1174,1174, ,1174,1174,1174,1174,1174,716,1174,1174,123,1153,694, ,645,654,658,695,99,109,77,694,248,227,868, ,843,845,850,792,218,199,251,867,1141,557,1174, ,1149,1151,1156,1068,1241,460,316,1173,958,1480,1480, ,1480,1480,1480,1480,1480,872,1480,1480,
-268.828700677735,49.3192573802195,318.147958057956,380.929611511896,463.555310692841,444.397901394277,286.196780917907,-51.9606483501518,-403.000220371244,109.754721648758,-293.488329367845,183.733607719088,1264,1786,1786, ,1786,1786,1786,1786,1786,1329,1786,1786,167,1850,1269, ,700,702,707,726,168,625,652,1206,310,254,946, ,920,920,924,846,343,306,263,953,1739,633,1640, ,1626,1703,1661,1685,1853,565,407,1641,1569,2093,2093, ,2093,2093,2093,2093,2093,1502,2093,2093,
-268.828700677735,49.3192573802195,318.147958057956,380.929611511896,463.555310692841,444.397901394277,286.196780917907,-51.9606483501518,-403.000220371244,109.754721648758,-293.488329367845,183.733607719088,1876,2402,2402, ,2402,2402,2402,2402,2402,1941,2402,2402,682,1901,1305, ,1258,1261,1182,1190,683,723,718,1269,470,352,1365, ,1009,1009,1012,936,505,369,317,1355,2892,1378,1785, ,1761,1744,1760,1785,2471,1028,906,1785,2183,2712,2712, ,2712,2712,2712,2712,2712,2116,2712,2712,
-268.828700677735,49.3192573802195,318.147958057956,380.929611511896,463.555310692841,444.397901394277,286.196780917907,-51.9606483501518,-403.000220371244,109.754721648758,-293.488329367845,183.733607719088,2492,3020,3020, ,3020,3020,3020,3020,3020,2555,3020,3020,733,1949,1878, ,1313,1349,1268,1238,714,1265,1315,1305,840,410,1478, ,1355,1431,1350,1456,823,750,853,1479,3335,1487,2253, ,2238,1840,2243,2297,3085,1072,957,2253,2801,3328,3328, ,3328,3328,3328,3328,3328,2732,3328,3328,
-268.828700677735,49.3192573802195,318.147958057956,380.929611511896,463.555310692841,444.397901394277,286.196780917907,-51.9606483501518,-403.000220371244,109.754721648758,-293.488329367845,183.733607719088,3108,3634,3634, ,3634,3634,3634,3634,3634,3170,3634,3634,781,2434,1917, ,1794,1363,1313,1802,750,1363,1363,1818,861,1157,1557, ,1456,1448,1455,1501,832,811,891,1565,3382,1568,2401, ,2376,1846,2376,2401,3701,1177,1048,2401,3416,3940,3940, ,3940,3940,3940,3940,3940,3349,3940,3940,
-268.828700677735,49.3192573802195,318.147958057956,380.929611511896,463.555310692841,444.397901394277,286.196780917907,-51.9606483501518,-403.000220371244,109.754721648758,-293.488329367845,183.733607719088,3723,4251,4251, ,4251,4251,4251,4251,4251,3788,4251,4251,1263,2498,2496, ,1873,1392,1794,1850,1296,1908,1915,1879,924,1164,1977, ,1533,1534,1529,1556,957,918,903,1976,3479,2271,2870, ,2855,2260,2860,2870,4311,1835,1758,2871,4030,4562,4562, ,4562,4562,4562,4562,4562,3964,4562,4562,
-268.828700677735,49.3192573802195,318.147958057956,380.929611511896,463.555310692841,444.397901394277,286.196780917907,-51.9606483501518,-403.000220371244,109.754721648758,-293.488329367845,183.733607719088,4340,4868,4868, ,4868,4868,4868,4868,4868,4406,4868,4868,1285,2533,2533, ,1925,1396,1883,2402,1325,1934,1975,1917,1079,1194,2090, ,1621,1552,1618,1641,1118,973,958,2091,4130,2399,3019, ,2993,2363,2993,3013,4932,2424,2104,3019,4650,5174,5174, ,5174,5174,5174,5174,5174,4582,5174,5174,
-297.098450155247,49.3192573802195,346.417707535467,380.929611511896,463.555310692841,444.397901394277,286.196780917907,-51.9606483501518,-403.000220371244,123.889596387514,-321.758078845356,197.868482457844,4957,5482,5482, ,5482,5482,5482,5482,5482,5026,5482,5482,1330,3052,3109, ,2491,1942,1925,2461,1363,1975,2538,2497,1434,1290,2169, ,1966,1610,1968,2069,1434,1028,1440,2178,4272,2866,3487, ,3473,2456,3033,3488,5550,2425,2155,3488,5264,5791,5791, ,5791,5791,5791,5791,5791,5178,5791,5791,
-369.47580712342,49.3192573802195,418.79506450364,380.929611511896,463.555310692841,444.397901394277,286.196780917907,-51.9606483501518,-454.25034110865,160.0782748716,-394.135435813529,234.057160941931,5572,6100,6100, ,6100,6100,6100,6100,6100,5640,6100,6100,2449,3122,3151, ,2540,2556,2409,3020,1908,2524,2580,2533,1450,1346,2594, ,2067,1628,2073,2115,1449,1387,1477,2591,4568,3013,3633, ,3609,2874,3521,3631,6163,2429,2245,3633,5881,6410,6410, ,6410,6410,6410,6410,6410,5816,6410,6410,
-423.862163750808,49.3192573802195,473.181421131028,380.929611511896,463.555310692841,444.397901394277,286.196780917907,-51.9606483501518,-488.633504423163,187.271453185294,-448.521792440917,261.250339255625,6190,6721,6721, ,6721,6721,6721,6721,6721,6261,6721,6721,2482,3183,3726, ,3103,3171,2501,3077,1933,2551,2591,3110,1536,2068,2706, ,2145,1699,2149,2167,1568,1408,1543,2708,4615,3531,4099, ,4085,2980,3604,4145,6778,2869,2721,4100,6498,7032,7032, ,7032,7032,7032,7032,7032,6431,7032,7032,
-445.852563823592,49.3192573802195,495.171821203813,380.929611511896,463.555310692841,444.397901394277,286.196780917907,-51.9606483501518,-505.842115369925,198.266653221686,-470.512192513702,272.245539292017,6809,7340,7340, ,7340,7340,7340,7340,7340,6876,7340,7340,3197,3666,3765, ,3157,4252,2540,3650,1975,2591,3160,3151,1698,2089,2790, ,2234,1717,2237,2253,1730,1556,1702,2797,4710,3633,4250, ,4225,3070,3713,4250,7367,2909,2771,4250,7120,7647,7647, ,7647,7647,7647,7647,7647,7032,7647,7647,
-447.872562574149,49.3192573802195,497.191819954369,380.929611511896,463.555310692841,444.397901394277,286.196780917907,-51.9606483501518,-508.534763792236,199.276652596965,-472.532191264258,273.255538667295,7428,7960,7960, ,7960,7960,7960,7960,7960,7500,7960,7960,3228,3726,4343, ,3642,4962,2587,3698,2524,3124,3207,3726,2601,2115,3212, ,2584,1965,2585,2687,2048,1612,2048,3209,5184,4145,4718, ,4705,3521,4139,4762,8377,3001,2862,4719,7736,8272,8272, ,8272,8272,8272,8272,8272,7669,8272,8272,
-433.851930169264,49.3192573802195,483.171187549485,380.929611511896,463.555310692841,444.397901394277,286.196780917907,-51.9606483501518,-499.589821835847,192.266336394522,-458.511558859374,266.245222464853,8048,8584,8584, ,8584,8584,8584,8584,8584,8119,8584,8584,3988,3797,4382, ,3718,4999,2684,4251,2552,3159,3776,3765,2620,2211,3324, ,2685,2069,2691,2731,2182,1665,2088,3326,5230,4250,4867, ,4841,3598,4218,4867,8474,3486,3338,4867,8361,8896,8896, ,8896,8896,8896,8896,8896,8294,8896,8896,
-407.811176642292,49.3192573802195,457.130434022512,380.929611511896,463.555310692841,444.397901394277,286.196780917907,-51.9606483501518,-481.938264504154,179.245959631036,-432.470805332401,253.224845701367,8672,9207,9207, ,9207,9207,9207,9207,9207,8741,9207,9207,4024,4267,4957, ,3773,5576,2718,4310,2591,3755,3822,4344,2688,2271,3402, ,2762,2145,2764,2783,2348,1978,2100,3411,5326,4762,5334, ,5320,3685,4329,5379,8514,3524,3389,5335,8984,9518,9518, ,9518,9518,9518,9518,9518,8896,9518,9518,
-374.542240680697,49.3192573802195,423.861498060918,380.929611511896,463.555310692841,444.397901394277,286.196780917907,-51.9606483501518,-458.41620126681,162.611491650239,-399.201869370806,236.590377720569,9310,9923,9923, ,9923,9923,9923,9923,9923,9367,9923,9923,4254,4318,4999, ,4338,5613,3171,4868,3149,3783,4395,4382,2839,2658,3824, ,2851,2234,2766,2870,2667,2044,2183,3823,5801,4867,5481, ,5443,4570,5219,5481,9205,3617,3479,5481,9636, , , , , , , , ,9540, , ,
-337.382512813544,49.3192573802195,386.701770193765,380.929611511896,463.555310692841,444.397901394277,286.196780917907,-51.9606483501518,-431.642865785884,144.031627716662,-362.042141503654,218.010513786993,9998, , , , , , , , ,9998, , ,4427,4884,5578, ,4389,6195,3205,4929,3175,3822,4439,4958,3293,2678,3937, ,3201,2582,2854,3304,2678,2141,2668,3939,5848,5379,5950, ,5457,4673,5298,5953,9891,4265,3951,5951, , , , , , , , , , , , ,
-297.784970433617,49.3192573802195,347.104227813837,380.929611511896,463.555310692841,444.397901394277,286.196780917907,-50.3505571101966,-404.270074167851,124.232856526699,-322.444599123726,198.211742597029, , , , , , , , , , , , ,4449,4938,5613, ,4954,6231,3789,5498,3755,4356,5008,4999,3310,2712,4016, ,3302,2686,2870,3348,2800,2224,2704,4025,5940,5481,6099, ,5579,4766,5409,6093, ,4266,4002,6099, , , , , , , , , , , , ,
-268.828700677735,49.3192573802195,318.147958057956,380.929611511896,463.555310692841,444.397901394277,286.196780917907,-44.0831825312055,-403.000220371244,109.754721648758,-293.488329367845,183.733607719088, , , , , , , , , , , , ,5065,5498,6196, ,5005,6818,4869,5547,3783,4989,5056,5514,3319,2806,4443, ,3379,2762,2944,3401,2964,2255,2717,4421,6417,5993,6567, ,6460,5347,5961,6564, ,4277,4092,6568, , , , , , , , , , , , ,
-268.828700677735,74.8548436957677,343.683544373504,380.929611511896,463.555310692841,444.397901394277,286.196780917907,-34.535245275363,-403.000220371244,96.9869284909836,-306.256122525619,209.269194034636, , , , , , , , , , , , ,5096,5554,6231, ,5073,6852,5580,6116,3822,5016,6158,5578,3331,2866,4556, ,3468,2852,3033,3488,3281,2595,2801,4556,6462,6099,6720, ,6558,5481,6099,6711, ,4885,4570,6720, , , , , , , , , , , , ,
-268.828700677735,87.3927431808175,356.221443858554,380.929611511896,463.555310692841,444.397901394277,286.196780917907,-31.0300632506912,-382.426567775305,90.7179787484587,-312.525072268144,221.807093519686, , , , , , , , , , , , ,5659,6132,6815, ,5126,7435,5613,6166,4360,5056,6189,5613,4086,3277,4631, ,3814,3200,3203,3918,3295,2630,3285,4647,6510,6567,7189, ,7201,5961,6579,7188, ,4886,4620,7190, , , , , , , , , , , , ,
-268.828700677735,94.4376908858704,363.266391563607,380.929611511896,463.555310692841,444.397901394277,286.196780917907,-27.2490135561695,-365.960842460513,87.1955048959323,-316.04754612067,228.852041224739, , , , , , , , , , , , ,5706,6196,6852, ,6078,7471,6200,6721,4407,5604,6199,6196,4103,3297,5052, ,3915,3304,3309,3963,3415,2759,3323,5048,6556,6711,7339, ,7340,6099,6720,7332, ,4894,4711,7339, , , , , , , , , , , , ,
-258.667553917318,100.880565233131,359.54811915045,380.929611511896,463.555310692841,444.397901394277,286.196780917907,-29.3728612621123,-354.344151055896,78.8934943420931,-309.107836533883,230.214342191791, , , , , , , , , , , , ,6194,6231,7429, ,6144,8055,6231,6779,4989,5639,6722,6231,4105,3328,5172, ,3992,3379,3383,4014,3576,2841,3335,5173,6559,7232,7806, ,7819,6579,7200,7851, ,5497,5186,7807, , , , , , , , , , , , ,
-248.275320035386,98.8021592759106,347.077479311298,380.929611511896,463.555310692841,444.397901394277,286.196780917907,-33.9859069835427,-347.059231356513,74.7365803797378,-297.676399673341,222.939819293605, , , , , , , , , , , , ,6298,6812,7471, ,6829,8091,6822,7356,5017,5671,6816,6814,4125,3424,5253, ,4081,3468,3472,4099,3897,2869,3416,5259,6649,7339,7959, ,7959,6720,7339,7959, ,5502,5236,7959, , , , , , , , , , , , ,
-244.11893351849,92.9898646987577,337.108798217249,380.929611511896,463.555310692841,444.397901394277,286.196780917907,-42.2721693887381,-344.432329283515,75.5645344098663,-290.613865867869,215.049331458004, , , , , , , , , , , , ,6331,6852,8054, ,6884,8678,6852,7405,5056,6222,6852,6852,4518,3481,5674, ,4432,4276,3816,4535,4029,3211,3896,5674,7289,7851,8429, ,8439,7200,7819,8429, ,5503,5326,8431, , , , , , , , , , , , ,
-245.50886337021,82.7918694248602,328.300732795071,380.929611511896,463.555310692841,444.397901394277,286.196780917907,-51.9606483501518,-345.19599845241,81.3584969726748,-286.90479808264,205.546301109966, , , , , , , , , , , , ,6367,7356,8091, ,7430,8715,7437,7960,5638,6248,7341,7432,4565,3893,5789, ,4534,4379,3921,4581,4188,3243,3936,5790,7929,7959,8583, ,8583,7339,7959,8571, ,6097,6595,8583, , , , , , , , , , , , ,
-251.535224632911,70.1495693283524,321.684793961264,380.929611511896,463.555310692841,444.397901394277,286.196780917907,-51.9606483501518,-349.700501896732,90.6928276522791,-286.610009297087,195.917181644809, , , , , , , , , , , , ,6389,7408,8675, ,7471,9304,7471,8020,5682,6289,7426,7471,5120,3915,5868, ,4611,4455,3996,4633,4515,3375,3948,5876,8538,8471,9052, ,9063,7819,8439,9055, ,6098,7041,9053, , , , , , , , , , , , ,
-261.152708683833,57.5419235897963,318.69463227363,380.929611511896,463.555310692841,444.397901394277,286.196780917907,-51.9606483501518,-356.244081084519,101.805392547018,-289.923670478731,188.118277931714, , , , , , , , , , , , ,6814,7976,8715, ,8051,9338,8057,8584,5702,6841,7471,8055,5180,3941,6293, ,4700,4545,4085,4718,4523,3432,4030,6281,9157,8583,9206, ,9206,7959,8583,9195, ,6115,7092,9206, , , , , , , , , , , , ,
-268.828700677735,49.3192573802195,318.147958057956,380.929611511896,463.555310692841,444.397901394277,286.196780917907,-51.9606483501518,-365.033419010476,109.754721648758,-293.488329367845,183.733607719088, , , , , , , , , , , , ,6842,8027,9302, ,8091, ,8091,8643,6223,6874,7961,8091,5740,4037,6405, ,5049,5047,4895,5153,4649,3486,4518,6406,9250,9095,9676, ,9686,8439,9063,9718, ,6730,7182,9680, , , , , , , , , , , , ,
-268.828700677735,49.3192573802195,318.147958057956,380.929611511896,463.555310692841,444.397901394277,286.196780917907,-51.9606483501518,-374.637494275066,109.754721648758,-293.488329367845,183.733607719088, , , , , , , , , , , , ,6881,8600,9338, ,8670, ,8681,9207,6257,6908,8052,8677,5752,4097,6485, ,5149,5151,5002,5177,4822,3825,4555,6495,9882,9206,9796, ,9778,8583,9206,9807, ,6731,7659,9797, , , , , , , , , , , , ,
-268.828700677735,49.3192573802195,318.147958057956,380.929611511896,463.555310692841,444.397901394277,286.196780917907,-51.9606483501518,-384.72130052783,109.754721648758,-293.488329367845,183.733607719088, , , , , , , , , , , , ,7492,8648, , ,8715, ,8715,9266,6908,7460,8091,8715,5757,4484,6915, ,5170,5226,5077,5249,5131,3853,4567,6913,9883,9692, , , ,9063,9718,9861, ,6734,7709, , , , , , , , , , , , , ,
-268.828700677735,32.8187952372315,301.647495914968,380.929611511896,463.555310692841,444.397901394277,286.196780917907,-51.9606483501518,-394.942878805658,118.004952720252,-285.238098296351,167.2331455761, , , , , , , , , , , , ,7538,9207, , ,9288, ,9310, ,6942,7504,8585,9302,5797,4527,7027, ,5226,5316,5166,5334,5137,3990,4650,7028, ,9808, , , ,9206,9785, , ,7182,7799, , , , , , , , , , , , , ,
-268.828700677735,17.8831594567374,286.711860134474,380.929611511896,463.555310692841,444.397901394277,286.196780917907,-51.9606483501518,-403.000220371244,125.472770610499,-277.770280406104,152.297509795606, , , , , , , , , , , , ,7559,9273, , ,9338, ,9338, ,7007,7527,8673,9370,6364,4557,7104, ,5271,5665,5668,5769,5263,4047,5132,7118, ,9862, , , ,9686,9855, , ,7211,8281, , , , , , , , , , , , , ,
-268.828700677735,4.98374676152991,273.812447439266,380.929611511896,463.555310692841,444.397901394277,286.196780917907,-51.9606483501518,-403.000220371244,131.922476958103,-271.3205740585,139.398097100399, , , , , , , , , , , , ,8112, , , , , , , ,8017,8064,8715, ,6377,4656,7523, ,5316,5768,5773,5815,5425,4096,5170,7529, , , , , ,9779, , , ,7323,8331, , , , , , , , , , , , , ,
-268.828700677735,-5.55857831116089,263.270122366575,380.929611511896,463.555310692841,444.397901394277,286.196780917907,-51.9606483501518,-403.000220371244,137.193639494448,-266.049411522154,128.855772027708, , , , , , , , , , , , ,8136, , , , , , , ,8027,8742,9208, ,6381,4716,7645, ,5349,5844,5847,5866,5746,4441,5182,7646, , , , , , , , , ,7968,8422, , , , , , , , , , , , , ,
-268.828700677735,-13.5746401276018,255.254060550134,380.929611511896,463.555310692841,444.397901394277,286.196780917907,-51.9606483501518,-403.000220371244,141.201670402668,-262.041380613934,120.839710211267, , , , , , , , , , , , ,8179, , , , , , , ,8585,8808,9282, ,6412,5116,7725, ,5438,5934,5937,5953,5756,4525,5264,7732, , , , , , , , , ,7969,8904, , , , , , , , , , , , , ,
-268.828700677735,-19.0390461282526,249.789654549484,380.929611511896,463.555310692841,444.397901394277,286.196780917907,-51.9606483501518,-403.000220371244,143.933873402994,-259.309177613608,115.375304210616, , , , , , , , , , , , ,8704, , , , , , , ,8649,9368,9338, ,6457,5148,8155, ,6161,6280,6283,6385,5880,4608,6279,8220, , , , , , , , , ,7978,8955, , , , , , , , , , , , , ,
-268.828700677735,-22.0545080382716,246.774192639465,380.929611511896,463.555310692841,444.397901394277,286.196780917907,-51.9606483501518,-403.000220371244,145.441604358003,-257.801446658599,112.359842300597, , , , , , , , , , , , ,8761, , , , , , , ,8683, , , ,6474,5175,8267, ,6262,6384,6388,6430,6044,4689,6315,8245, , , , , , , , , ,8583,9045, , , , , , , , , , , , , ,
-268.828700677735,-22.8300815123256,245.998619165411,380.929611511896,463.555310692841,444.397901394277,286.196780917907,-51.9606483501518,-403.000220371244,145.82939109503,-257.413659921572,111.584268826543, , , , , , , , , , , , ,8803, , , , , , , ,9208, , , ,6485,5272,8342, ,6340,6460,6464,6481,6365,4716,6381,8268, , , , , , , , , ,8584,9564, , , , , , , , , , , , , ,
-268.828700677735,-21.6553352602135,247.173365417523,380.929611511896,463.555310692841,444.397901394277,286.196780917907,-51.9606483501518,-403.000220371244,145.242017968974,-258.001033047628,112.759015078655, , , , , , , , , , , , ,9342, , , , , , , ,9270, , , ,6506,5330,8778, ,6429,6549,6552,6564,6375,5059,6506,8357, , , , , , , , , ,8597,9601, , , , , , , , , , , , , ,
-268.828700677735,-18.8726501292048,249.956050548531,380.929611511896,463.555310692841,444.397901394277,286.196780917907,-51.9606483501518,-403.000220371244,143.85067540347,-259.392375613132,115.541700209664, , , , , , , , , , , , ,9386, , , , , , , ,9306, , , ,6999,5742,8890, ,6928,6903,6905,7008,6497,5121,6987,8776, , , , , , , , , ,9092,9669, , , , , , , , , , , , , ,
-268.828700677735,-14.8498335571247,253.978867120611,380.929611511896,463.555310692841,444.397901394277,286.196780917907,-51.9606483501518,-403.000220371244,141.83926711743,-261.403783899172,119.564516781744, , , , , , , , , , , , ,9409, , , , , , , , , , , ,7015,5762,8976, ,7030,7007,7011,7031,6662,5223,7025,8865, , , , , , , , , ,9144, , , , , , , , , , , , , , ,
-268.828700677735,-9.95497652920574,258.87372414853,380.929611511896,463.555310692841,444.397901394277,286.196780917907,-51.9606483501518,-403.000220371244,139.39183860347,-263.851212413132,124.459373809663, , , , , , , , , , , , , , , , , , , , , , , , ,7086,5792,9403, ,7107,7082,7086,7104,7053,5279,7032,8892, , , , , , , , , ,9233, , , , , , , , , , , , , , ,
-268.828700677735,-4.53501958649292,264.293681091243,380.929611511896,463.555310692841,444.397901394277,286.196780917907,-51.9606483501518,-403.000220371244,136.681860132114,-266.561190884488,129.879330752376, , , , , , , , , , , , , , , , , , , , , , , , ,7220,5890,9516, ,7197,7172,7175,7188,7186,5333,7038,8981, , , , , , , , , ,9710, , , , , , , , , , , , , , ,
-268.828700677735,1.10106551488491,269.929766192621,380.929611511896,463.555310692841,444.397901394277,286.196780917907,-51.9606483501518,-403.000220371244,133.863817581425,-269.379233435177,135.515415853754, , , , , , , , , , , , , , , , , , , , , , , , ,7645,5951,9594, ,7519,7519,7522,7625,7352,5677,7591,9399, , , , , , , , , ,9711, , , , , , , , , , , , , , ,
-268.828700677735,6.69412300158376,275.52282367932,380.929611511896,463.555310692841,444.397901394277,286.196780917907,-51.9606483501518,-403.000220371244,131.067288838076,-272.175762178527,141.108473340453, , , , , , , , , , , , , , , , , , , , , , , , ,7665,6347, , ,7622,7624,7628,7668,8056,5706,7643,9517, , , , , , , , , ,9844, , , , , , , , , , , , , , ,
-268.828700677735,12.0418046720971,280.870505349833,380.929611511896,463.555310692841,444.397901394277,286.196780917907,-51.9606483501518,-403.000220371244,128.393448002819,-274.849603013783,146.456155010966, , , , , , , , , , , , , , , , , , , , , , , , ,7729,6381, , ,7699,7699,7703,7722,8066,5842,7647,9605, , , , , , , , , , , , , , , , , , , , , , , , ,
-268.828700677735,17.0011726771942,285.82987335493,380.929611511896,463.555310692841,444.397901394277,286.196780917907,-51.9606483501518,-403.000220371244,125.91376400027,-277.329287016332,151.415523016063, , , , , , , , , , , , , , , , , , , , , , , , ,7862,6408, , ,7789,7789,7792,7807,8195,5928,7656, , , , , , , , , , , , , , , , , , , , , , , , , ,
-268.828700677735,21.4875817887201,290.316282466456,380.929611511896,463.555310692841,444.397901394277,286.196780917907,-51.9606483501518,-403.000220371244,123.670559444507,-279.572491572095,155.901932127589, , , , , , , , , , , , , , , , , , , , , , , , ,8241,6505, , ,8143,8142,8145,8249,8290,6293,8228, , , , , , , , , , , , , , , , , , , , , , , , , ,
-268.828700677735,25.4705566331783,294.299257310914,380.929611511896,463.555310692841,444.397901394277,286.196780917907,-51.9606483501518,-403.000220371244,121.679072022278,-281.563978994324,159.884906972047, , , , , , , , , , , , , , , , , , , , , , , , ,8325,6567, , ,8245,8246,8251,8293,8845,6310,8266, , , , , , , , , , , , , , , , , , , , , , , , , ,
-268.828700677735,28.9673271701291,297.796027847865,380.929611511896,463.555310692841,444.397901394277,286.196780917907,-51.9606483501518,-403.000220371244,119.930686753803,-283.312364262799,163.381677508998, , , , , , , , , , , , , , , , , , , , , , , , ,8478,6970, , ,8322,8322,8326,8344,8859,6455,8272, , , , , , , , , , , , , , , , , , , , , , , , , ,
-268.828700677735,32.0346281681392,300.863328845875,380.929611511896,463.555310692841,444.397901394277,286.196780917907,-51.9606483501518,-403.000220371244,118.397036254798,-284.846014761804,166.448978507008, , , , , , , , , , , , , , , , , , , , , , , , ,8859,6982, , ,8411,8412,8415,8429,8983,6537,8278, , , , , , , , , , , , , , , , , , , , , , , , , ,
-268.828700677735,34.7593637883316,303.588064466068,380.929611511896,463.555310692841,444.397901394277,286.196780917907,-51.9606483501518,-403.000220371244,117.034668444702,-286.208382571901,169.1737141272, , , , , , , , , , , , , , , , , , , , , , , , ,8887,7030, , ,8766,8758,8768,8873,9163,6561,8843, , , , , , , , , , , , , , , , , , , , , , , , , ,
-268.828700677735,37.248767415556,306.077468093292,382.649541228511,463.555310692841,444.397901394277,286.196780917907,-52.1494826390897,-403.000220371244,115.789966631089,-287.453084385513,171.663117754425, , , , , , , , , , , , , , , , , , , , , , , , ,8949,7129, , ,8868,8870,8875,8895,9172,6915,8889, , , , , , , , , , , , , , , , , , , , , , , , , ,
-268.828700677735,39.6206864279744,308.449387105711,389.069089691148,463.555310692841,449.960084457242,286.196780917907,-52.4621344400077,-403.000220371244,114.60400712488,-288.639043891722,174.035036766843, , , , , , , , , , , , , , , , , , , , , , , , ,9082,7190, , ,8945,8946,8950,8967,9474,6959,8896, , , , , , , , , , , , , , , , , , , , , , , , , ,
-268.828700677735,41.9945404386164,310.823241116353,395.38819583389,463.555310692841,453.136391917932,286.196780917907,-52.6179833054396,-403.000220371244,113.417080119559,-289.825970897043,176.408890777485, , , , , , , , , , , , , , , , , , , , , , , , ,9492,7576, , ,9035,9036,9039,9055,9488,7080,8901, , , , , , , , , , , , , , , , , , , , , , , , , ,
-268.828700677735,44.4833383463321,313.312039024068,401.639212544413,463.555310692841,456.853142454414,287.024596678021,-52.7196541544279,-404.006350486631,112.172681165701,-291.070369850901,178.897688685201, , , , , , , , , , , , , , , , , , , , , , , , ,9511,7611, , ,9392,9391,9394,9499,9606,7135,9477, , , , , , , , , , , , , , , , , , , , , , , , , ,
-268.828700677735,47.1869564729246,316.015657150661,407.856236119384,463.555310692841,460.186300653112,288.837026216584,-52.7355310488626,-405.165655036325,110.820872102405,-292.422178914197,181.601306811793, , , , , , , , , , , , , , , , , , , , , , , , ,9574,7648, , ,9493,9495,9500,9539,9789,7182,9515, , , , , , , , , , , , , , , , , , , , , , , , , ,
-268.828700677735,49.3192573802195,318.147958057956,414.072737393352,468.786266780151,466.369624968006,291.634388676599,-52.6373402571041,-406.25007503596,109.754721648758,-293.488329367845,183.733607719088, , , , , , , , , , , , , , , , , , , , , , , , ,9704,7745, , ,9570,9570,9574,9593,9798,7529,9518, , , , , , , , , , , , , , , , , , , , , , , , , ,
-268.828700677735,49.3192573802195,318.147958057956,420.319482549287,474.103862717146,469.774110309644,293.561783438254,-52.3903516514399,-407.405113275252,109.754721648758,-293.488329367845,183.733607719088, , , , , , , , , , , , , , , , , , , , , , , , ,9708,7807, , ,9661,9661,9664,9683, ,7608,9527, , , , , , , , , , , , , , , , , , , , , , , , , ,
-272.347146786061,49.3192573802195,321.666404166282,426.622609474957,479.490084501096,474.313059194987,297.23373409361,-51.9918008468578,-408.242196732237,111.513944702921,-297.00677547617,185.492830773251, , , , , , , , , , , , , , , , , , , , , , , , , ,8223, , , , , , , ,7696, , , , , , , , , , , , , , , , , , , , , , , , , , ,
-275.352998635842,53.4598030993349,328.812801735178,433.001752158171,484.923825677106,477.692972128487,299.241719230073,-51.9606483501518,-408.929464969284,110.946597768254,-302.082900185509,191.136302417257, , , , , , , , , , , , , , , , , , , , , , , , , ,8244, , , , , , , ,7752, , , , , , , , , , , , , , , , , , , , , , , , , , ,
-277.838913235507,58.5595094142642,336.398422649772,439.468178710461,490.380845028609,482.532718107962,301.59336745454,-51.9606483501518,-409.808694455909,109.639701910621,-307.118667942639,197.478966032019, , , , , , , , , , , , , , , , , , , , , , , , , ,8270, , , , , , , ,7799, , , , , , , , , , , , , , , , , , , , , , , , , , ,
-279.823282837229,66.5807619066305,346.40404474386,446.022996805048,495.834035410324,485.789847360552,304.928953895146,-51.9606483501518,-410.197903855202,106.621260465299,-313.113663790544,206.492403325246, , , , , , , , , , , , , , , , , , , , , , , , , ,8367, , , , , , , ,8156, , , , , , , , , , , , , , , , , , , , , , , , , , ,
-281.345557608118,71.7148338837011,353.060391491821,452.655549764194,501.254016029247,491.240459851672,306.917341731743,-51.9606483501518,-410.456402755646,104.815361862209,-317.202974549969,212.387612687761, , , , , , , , , , , , , , , , , , , , , , , , , ,8431, , , , , , , ,8218, , , , , , , , , , , , , , , , , , , , , , , , , , ,
-282.460822585188,78.0933724051348,360.554194990324,459.342161189642,506.610029083543,494.289095398501,309.337476679788,-51.9606483501518,-410.604612695477,102.183725090027,-321.507508787755,219.32378369773, , , , , , , , , , , , , , , , , , , , , , , , , ,8815, , , , , , , ,8320, , , , , , , , , , , , , , , , , , , , , , , , , , ,
-283.233963933794,84.7367734521514,367.970737385947,466.045386886182,511.871070612896,497.387451828976,311.199569168955,-51.9606483501518,-410.66597524828,99.2485952408214,-325.60235065987,226.35375541905, , , , , , , , , , , , , , , , , , , , , , , , , ,8861, , , , , , , ,8377, , , , , , , , , , , , , , , , , , , , , , , , , , ,
-283.733793726722,90.2074257513524,373.941219478075,472.713901591713,517.007116742609,500.173165561611,314.085401234315,-51.9606483501518,-410.664237679585,96.7631839876846,-328.837506602398,232.074322614714, , , , , , , , , , , , , , , , , , , , , , , , , ,8896, , , , , , , ,8414, , , , , , , , , , , , , , , , , , , , , , , , , , ,
-284.027512520534,96.730441908414,380.757954428949,479.283081154712,521.990237267026,505.088623268984,315.757704346992,-51.9606483501518,-410.620760647644,93.6485353060599,-332.392733474741,238.744198168682, , , , , , , , , , , , , , , , , , , , , , , , , ,8991, , , , , , , ,8836, , , , , , , , , , , , , , , , , , , , , , , , , , ,
-284.175845002611,102.00548060742,386.181325610032,485.676244300195,526.795343393863,507.604750739987,318.880498741942,-51.9606483501518,-410.552018175582,91.0851821975954,-335.178585306321,244.093403108727, , , , , , , , , , , , , , , , , , , , , , , , , ,9053, , , , , , , ,8926, , , , , , , , , , , , , , , , , , , , , , , , , , ,
-284.229099509462,107.958925138902,392.188024648366,491.806416728306,531.40031615746,510.031220400501,320.359904681973,-51.9606483501518,-410.467454248985,88.13508718528,-338.208562078913,250.073474893635, , , , , , , , , , , , , , , , , , , , , , , , , ,9467, , , , , , , ,9012, , , , , , , , , , , , , , , , , , , , , , , , , , ,
-284.224303307345,112.825123393508,397.049426700854,497.578398206374,535.785307511316,513.039308005616,322.893689090918,-51.9606483501518,-410.36783847322,85.6995899569182,-340.636865004098,254.937275047182, , , , , , , , , , , , , , , , , , , , , , , , , ,9488, , , , , , , ,9057, , , , , , , , , , , , , , , , , , , , , , , , , , ,
-284.183468418742,117.468895685958,401.652364104701,502.890855895275,539.931074171741,515.246765390694,324.251902474893,-51.9606483501518,-410.244231155338,83.3572863663921,-342.917916261721,259.56062989533, , , , , , , , , , , , , , , , , , , , , , , , , ,9519, , , , , , , ,9400, , , , , , , , , , , , , , , , , , , , , , , , , , ,
-284.112964454474,121.917443052385,406.03040750686,507.638136967213,543.81627349132,518.688541818145,325.96782113938,-51.9606483501518,-410.077644328306,81.0977607010442,-345.071685980666,263.973925279623, , , , , , , , , , , , , , , , , , , , , , , , , ,9614, , , , , , , ,9459, , , , , , , , , , , , , , , , , , , , , , , , , , ,
-284.003927023569,126.227542152713,410.231469176283,511.711510242918,547.413731744714,520.785592632219,327.334358766442,-51.9606483501518,-409.839473970601,78.8881924354281,-347.117698099926,268.229505664499, , , , , , , , , , , , , , , , , , , , , , , , , ,9682, , , , , , , ,9567, , , , , , , , , , , , , , , , , , , , , , , , , , ,
-283.83359925807,130.482901270624,414.316500528695,514.999628673094,550.685818066565,524.132930588502,330.196291257217,-51.9606483501518,-409.492757564976,76.6753489937231,-349.075049893382,272.39970089966, , , , , , , , , , , , , , , , , , , , , , , , , , , , , , , , , ,9630, , , , , , , , , , , , , , , , , , , , , , , , , , ,
-283.567463803676,134.789239573456,418.356703377133,517.388142462921,553.57923018696,526.151262147974,331.707560403198,-51.9606483501518,-408.99425706989,74.38911211511,-350.962083590403,276.572971475295, , , , , , , , , , , , , , , , , , , , , , , , , , , , , , , , , , , , , , , , , , , , , , , , , , , , , , , , , , , , ,
-283.161970851085,139.26733107133,422.429301922417,518.758558631458,556.019696107934,528.618548377822,334.409643131766,-51.9606483501518,-408.297283484555,71.9473198898774,-352.79563638675,280.848316496874, , , , , , , , , , , , , , , , , , , , , , , , , , , , , , , , , , , , , , , , , , , , , , , , , , , , , , , , , , , , ,
-282.567633889714,144.044422225631,426.612056115346,518.986614707004,557.907279021171,530.470508535917,336.134350623567,-51.9606483501518,-407.355088721722,69.2616058320415,-354.589845002529,285.328239170489, , , , , , , , , , , , , , , , , , , , , , , , , , , , , , , , , , , , , , , , , , , , , , , , , , , , , , , , , , , , ,
-281.732276401306,149.244569283753,430.97684568506,517.940591901976,559.113096408134,533.632231204499,338.219214657752,-50.6948572638191,-406.124575213423,66.2438535587761,-356.354561043182,290.110707484407, , , , , , , , , , , , , , , , , , , , , , , , , , , , , , , , , , , , , , , , , , , , , , , , , , , , , , , , , , , , ,
-280.604261424727,154.978550511241,435.582811935968,515.48010206743,559.478280856827,535.044869291295,340.083352610256,-48.3520972776489,-404.570023403538,62.8128554567431,-358.093536680347,295.280681223605, , , , , , , , , , , , , , , , , , , , , , , , , , , , , , , , , , , , , , , , , , , , , , , , , , , , , , , , , , , , ,
-279.135590754457,161.33408212508,440.469672879538,511.455904343766,558.815883308049,536.109960817759,343.17344977099,-45.5909595991445,-403.000220371244,58.9007543146885,-359.802631816997,300.90187750231, , , , , , , , , , , , , , , , , , , , , , , , , , , , , , , , , , , , , , , , , , , , , , , , , , , , , , , , , , , , ,
-277.284806955683,168.367072034966,445.651878990649,505.711232962978,556.916147374957,536.599719487017,344.915495870601,-42.7067643023449,-403.000220371244,54.4588674603584,-361.468342973165,307.009475512808, , , , , , , , , , , , , , , , , , , , , , , , , , , , , , , , , , , , , , , , , , , , , , , , , , , , , , , , , , , , ,
-275.019673123091,176.094557048627,451.114230171719,498.08498430735,553.555211012335,537.606379209702,346.580642107884,-39.6342285053408,-400.737316628588,49.4625580372323,-363.066951647404,313.604393610173, , , , , , , , , , , , , , , , , , , , , , , , , , , , , , , , , , , , , , , , , , , , , , , , , , , , , , , , , , , , ,
-272.31963109184,184.489817750002,456.809448841844,488.416969182992,548.506892063372,536.523163249696,348.185883071478,-35.8151642266846,-397.653644082839,43.9149066709189,-364.564539966841,320.649633295924, , , , , , , , , , , , , , , , , , , , , , , , , , , , , , , , , , , , , , , , , , , , , , , , , , , , , , , , , , , , ,
-269.178019797147,193.480019502426,462.658039299574,476.555300572148,541.556850301425,534.555319083964,348.884534852167,-32.6293671033029,-394.17263152238,37.8490001473605,-365.91802954836,328.069029401001, , , , , , , , , , , , , , , , , , , , , , , , , , , , , , , , , , , , , , , , , , , , , , , , , , , , , , , , , , , , ,
-268.828700677735,202.946620677315,471.775321355051,462.365838188611,532.518131190044,531.200428498619,349.48259765057,-29.5478257447646,-390.120569194306,32.9410400002102,-370.302011016392,337.360971016183, , , , , , , , , , , , , , , , , , , , , , , , , , , , , , , , , , , , , , , , , , , , , , , , , , , , , , , , , , , , ,
-268.828700677735,212.728692444584,481.557393122321,445.743432580222,522.444243072346,527.183375994021,348.796792891587,-26.0884399924114,-386.294375613699,28.0500041165753,-375.193046900027,347.143042783453, , , , , , , , , , , , , , , , , , , , , , , , , , , , , , , , , , , , , , , , , , , , , , , , , , , , , , , , , , , , ,
-268.828700677735,222.629162849518,491.457863527255,426.624504168662,508.85459525483,520.974478525341,348.05246646059,-23.5728974779774,-382.328456431449,23.0997689141083,-380.143282102494,357.043513188387, , , , , , , , , , , , , , , , , , , , , , , , , , , , , , , , , , , , , , , , , , , , , , , , , , , , , , , , , , , , ,
-268.192765826184,232.42380277796,500.616568604145,405.000260697138,492.931024936311,513.383223640479,345.495129195498,-21.5165461356867,-378.050803766771,17.8844815241122,-384.404667215164,366.520185691053, , , , , , , , , , , , , , , , , , , , , , , , , , , , , , , , , , , , , , , , , , , , , , , , , , , , , , , , , , , , ,
-262.46568361756,241.872507498166,504.338191115727,380.929611511896,477.599896675645,504.020279838601,341.927311700208,-19.3057064990501,-374.117943611655,10.2965880596966,-383.401937366642,373.105349306947, , , , , , , , , , , , , , , , , , , , , , , , , , , , , , , , , , , , , , , , , , , , , , , , , , , , , , , , , , , , ,
-256.923428278293,250.732123255916,507.65555153421,380.929611511896,463.555310692841,493.403952058923,337.201886878121,-18.4715730591508,-370.357219921162,3.09565251118821,-382.289489906251,379.193837395064, , , , , , , , , , , , , , , , , , , , , , , , , , , , , , , , , , , , , , , , , , , , , , , , , , , , , , , , , , , , ,
-250.818284043927,258.769791510411,509.58807555434,352.468168260535,441.17462725848,480.990332542018,331.968940282673,-18.3659080212662,-367.044378905643,-3.97575373324216,-380.203179799133,384.178933532376, , , , , , , , , , , , , , , , , , , , , , , , , , , , , , , , , , , , , , , , , , , , , , , , , , , , , , , , , , , , ,
-244.265913544164,265.775615437768,510.041528981933,321.247287073996,417.305740429058,467.304185583588,325.056134176547,-18.7630085972043,-364.059637467567,-10.7548509468021,-377.153721263048,387.908572209851, , , , , , , , , , , , , , , , , , , , , , , , , , , , , , , , , , , , , , , , , , , , , , , , , , , , , , , , , , , , ,
-236.268858758781,271.573450816022,507.842309574805,284.325370002817,390.489163494295,452.389935583427,317.203436326762,-20.2345464096395,-361.472416016404,-17.6522960286205,-372.055584166792,389.707880195414, , , , , , , , , , , , , , , , , , , , , , , , , , , , , , , , , , , , , , , , , , , , , , , , , , , , , , , , , , , , ,
-231.405953656182,276.0288028327,507.434756488883,250.224582292777,362.968398958436,444.397901394277,308.393041305984,-22.3703402667554,-359.538796147612,-22.311424588259,-369.420355072532,391.731779660792, , , , , , , , , , , , , , , , , , , , , , , , , , , , , , , , , , , , , , , , , , , , , , , , , , , , , , , , , , , , ,
-226.157651600915,279.05315457937,505.210806180286,210.826117713867,337.078365212876,444.397901394277,299.018962688826,-25.4052467753183,-357.902534420746,-26.4477514892274,-365.6842288906,392.131980379829, , , , , , , , , , , , , , , , , , , , , , , , , , , , , , , , , , , , , , , , , , , , , , , , , , , , , , , , , , , , ,
-221.007369730878,280.60450699473,501.611876725609,178.244973309757,310.388338655243,435.706403887755,288.876515245777,-29.152281211808,-356.789599247613,-29.7985686319263,-361.309623228242,391.10819186017, , , , , , , , , , , , , , , , , , , , , , , , , , , , , , , , , , , , , , , , , , , , , , , , , , , , , , , , , , , , ,
-215.447883743979,280.684380631941,496.132264375921,140.131106449001,285.657265312641,418.890701824786,286.196780917907,-32.2366138819086,-356.388247095777,-32.6182484439808,-355.790074059949,388.408322503932, , , , , , , , , , , , , , , , , , , , , , , , , , , , , , , , , , , , , , , , , , , , , , , , , , , , , , , , , , , , ,
-211.535610686835,280.168584903617,491.704195590453,109.742446349197,262.263502951734,402.382648036559,286.196780917907,-37.1585160964257,-356.368609183558,-34.316487108391,-351.619903138643,385.936390247035, , , , , , , , , , , , , , , , , , , , , , , , , , , , , , , , , , , , , , , , , , , , , , , , , , , , , , , , , , , , ,
-205.568489828111,277.45271537554,483.021205203652,77.9778901130584,241.356321958378,386.49269867959,284.854382504341,-42.5092996560859,-356.823815048282,-35.9421127737145,-344.294847515881,380.236960289597, , , , , , , , , , , , , , , , , , , , , , , , , , , , , , , , , , , , , , , , , , , , , , , , , , , , , , , , , , , , ,
-203.194172762923,273.895082965376,477.0892557283,53.2498113765459,221.974121774805,371.736175255547,274.442086990375,-48.0233708574476,-358.230116913009,-35.3504551012262,-340.141714245611,375.492169346838, , , , , , , , , , , , , , , , , , , , , , , , , , , , , , , , , , , , , , , , , , , , , , , , , , , , , , , , , , , , ,
-201.132379967609,269.598494640006,470.730874607617,31.803352447408,205.575990943133,358.016868248268,264.486708352556,-53.8607833532949,-359.573343316925,-34.2330573361986,-335.931627287612,370.164684623812, , , , , , , , , , , , , , , , , , , , , , , , , , , , , , , , , , , , , , , , , , , , , , , , , , , , , , , , , , , , ,
-199.304872999413,265.226012378931,464.530885378345,13.9992842435938,191.519112116848,345.688101090766,255.132337699448,-59.195170384676,-361.271733956411,-32.9605696897591,-331.917879188878,364.878448878639, , , , , , , , , , , , , , , , , , , , , , , , , , , , , , , , , , , , , , , , , , , , , , , , , , , , , , , , , , , , ,
-197.612180804285,258.045172384714,455.657353189,0.0698170911568354,180.400841392886,334.930914218586,246.76499113835,-64.3617706321145,-363.251290071088,-30.2164957902142,-326.634766996642,356.851262786858, , , , , , , , , , , , , , , , , , , , , , , , , , , , , , , , , , , , , , , , , , , , , , , , , , , , , , , , , , , , ,
-195.936230597105,250.863209562148,446.799440159254,-9.8913998463384,172.28054404208,325.679910549058,238.82647582125,-69.2589500163351,-365.429677086701,-27.4634894825213,-321.367835378179,348.831324860702, , , , , , , , , , , , , , , , , , , , , , , , , , , , , , , , , , , , , , , , , , , , , , , , , , , , , , , , , , , , ,
-194.144496248322,243.246821865712,437.391318114036,-15.9310992954807,167.126421429754,318.133372570871,232.279532165992,-74.2678184469153,-367.71879579413,-24.551162808695,-315.767907181178,340.319069989875, , , , , , , , , , , , , , , , , , , , , , , , , , , , , , , , , , , , , , , , , , , , , , , , , , , , , , , , , , , , ,
-192.095942246352,235.120058072264,427.216000318617,-18.2298337864002,164.82215483271,312.326863638038,226.329624083663,-79.1113671703267,-370.027609824167,-21.5120579129565,-309.655971282484,331.168029195441, , , , , , , , , , , , , , , , , , , , , , , , , , , , , , , , , , , , , , , , , , , , , , , , , , , , , , , , , , , , ,
-189.77231079298,227.488579435086,417.260890228067,-17.0875100823064,165.176792252278,308.179552466072,221.359501375542,-82.6751045636131,-372.265185530604,-18.8581343210531,-303.516600510522,322.374734831577, , , , , , , , , , , , , , , , , , , , , , , , , , , , , , , , , , , , , , , , , , , , , , , , , , , , , , , , , , , , ,
-189.287701279691,218.380310474852,407.668011754544,-12.9021490084461,167.937087049973,305.691150828023,217.433406599509,-86.3017605460216,-374.343909287834,-14.5463045975804,-298.477856517117,313.024161114699, , , , , , , , , , , , , , , , , , , , , , , , , , , , , , , , , , , , , , , , , , , , , , , , , , , , , , , , , , , , ,
-186.271655969947,208.570141155087,394.841797125035,-6.14352927491115,172.80149837965,304.602188770474,214.606816171889,-89.2497741298518,-376.182845037843,-11.1492425925702,-290.55672654749,301.705969140061, , , , , , , , , , , , , , , , , , , , , , , , , , , , , , , , , , , , , , , , , , , , , , , , , , , , , , , , , , , , ,
-181.920567053164,199.993541403661,381.914108456826,2.67626341686622,179.435141253612,304.897060598658,212.747648929182,-91.422844166568,-377.711178371285,-9.03648717524865,-281.917337754994,290.953824930244, , , , , , , , , , , , , , , , , , , , , , , , , , , , , , , , , , , , , , , , , , , , , , , , , , , , , , , , , , , , ,
-176.800176789567,190.652200464985,367.452377254553,13.033181797344,187.485061398075,306.299406878081,211.819792040982,-92.5844696182742,-379.058453737769,-6.92601183770907,-272.126277022059,279.05228885977, , , , , , , , , , , , , , , , , , , , , , , , , , , , , , , , , , , , , , , , , , , , , , , , , , , , , , , , , , , , ,
-171.689044037737,179.577267770072,351.26631180781,24.4202771396085,196.617955883922,308.70575217347,211.645472679466,-93.7402891063236,-379.810769840393,-3.94411186616762,-261.477677922773,265.421789788942, , , , , , , , , , , , , , , , , , , , , , , , , , , , , , , , , , , , , , , , , , , , , , , , , , , , , , , , , , , , ,
-165.114610762774,169.342696723698,334.457307486474,36.3735210655511,208.314992410504,312.064667220826,212.290129285884,-93.6306771629117,-380.283538099459,-2.11404298046213,-249.785959124623,251.900002105087, , , , , , , , , , , , , , , , , , , , , , , , , , , , , , , , , , , , , , , , , , , , , , , , , , , , , , , , , , , , ,
-159.728108234049,161.685801609644,321.413909843693,48.4928361026388,220.082544148294,315.936601948047,213.548535295206,-92.8887126083753,-380.181144211129,-0.978846687797471,-240.57100903887,241.549855726669, , , , , , , , , , , , , , , , , , , , , , , , , , , , , , , , , , , , , , , , , , , , , , , , , , , , , , , , , , , , ,
-152.468915316213,153.0414829486,305.510398264813,60.4572853249248,230.746273161636,320.613037307271,215.272072823353,-91.5790612111334,-379.679375413763,-0.286283816193503,-228.989656790512,229.275940606707, , , , , , , , , , , , , , , , , , , , , , , , , , , , , , , , , , , , , , , , , , , , , , , , , , , , , , , , , , , , ,
-144.830573237653,145.155133384112,289.985706621766,72.0339060302617,241.044818620496,325.460383958314,217.512683821124,-90.4895575014022,-378.830542536887,-0.162280073229653,-217.408139929709,217.57042000294, , , , , , , , , , , , , , , , , , , , , , , , , , , , , , , , , , , , , , , , , , , , , , , , , , , , , , , , , , , , ,
-137.367755999849,140.007795182517,277.375551182368,83.0801794141943,251.086778951778,330.146189285205,220.023945926914,-88.9244647287289,-377.712125082443,-1.32001959133422,-207.371653591108,208.691673182443, , , , , , , , , , , , , , , , , , , , , , , , , , , , , , , , , , , , , , , , , , , , , , , , , , , , , , , , , , , , ,
-130.418748514302,131.730193273251,262.148941787554,93.5405622454027,262.269307474279,335.49828475674,222.810128712892,-87.2553779741586,-376.425011807864,-0.655722379474668,-196.283845150927,196.939567530403, , , , , , , , , , , , , , , , , , , , , , , , , , , , , , , , , , , , , , , , , , , , , , , , , , , , , , , , , , , , ,
-124.344088765306,127.779373649678,252.123462414985,103.437846852137,272.178721916948,340.051882800185,225.531721243271,-84.9217131778885,-375.090171445721,-1.71764244218625,-188.233775590144,189.951418032332, , , , , , , , , , , , , , , , , , , , , , , , , , , , , , , , , , , , , , , , , , , , , , , , , , , , , , , , , , , , ,
-119.507966605425,121.887192359385,241.395158964811,112.860366295975,281.71036206613,344.786863148154,228.30857060183,-82.5853178495588,-373.843727954382,-1.18961287697979,-180.451562785117,181.641175662099, , , , , , , , , , , , , , , , , , , , , , , , , , , , , , , , , , , , , , , , , , , , , , , , , , , , , , , , , , , , ,
-116.257983535084,117.174558582811,233.432542117896,121.946228665466,289.259178868993,349.66018619123,230.854635383588,-80.6173400981909,-372.830513400236,-0.458287523863277,-174.84526282649,175.303550350354, , , , , , , , , , , , , , , , , , , , , , , , , , , , , , , , , , , , , , , , , , , , , , , , , , , , , , , , , , , , ,
-114.904395172745,115.443865983694,230.34826115644,130.86584338355,294.854524259486,352.947421049538,233.283484392213,-78.7307691588091,-372.196294307652,-0.269735405474734,-172.626328164592,172.896063570068, , , , , , , , , , , , , , , , , , , , , , , , , , , , , , , , , , , , , , , , , , , , , , , , , , , , , , , , , , , , ,
-115.700050164679,112.837957753742,228.538007918423,139.803990801888,298.349102044377,357.439477441595,236.065933801815,-77.1753652062591,-372.079033050782,1.43104620546856,-172.11902904155,170.687982836083, , , , , , , , , , , , , , , , , , , , , , , , , , , , , , , , , , , , , , , , , , , , , , , , , , , , , , , , , , , , ,
-118.822368701057,111.565802001496,230.388170702555,148.942599523763,304.105479854434,360.181067161667,237.87262897037,-76.1375583778092,-372.599744694022,3.62828334978045,-174.605269701805,170.976986352026, , , , , , , , , , , , , , , , , , , , , , , , , , , , , , , , , , , , , , , , , , , , , , , , , , , , , , , , , , , , ,
-124.358806406393,109.133033183735,233.491839590129,158.445263562253,309.231834083944,362.003934133911,240.292642425189,-75.3771786361255,-373.853692000185,7.61288661132895,-178.92532299826,171.312436386933, , , , , , , , , , , , , , , , , , , , , , , , , , , , , , , , , , , , , , , , , , , , , , , , , , , , , , , , , , , , ,
-132.297213260499,105.996668027382,238.293881287881,168.444374866819,311.114451690795,363.442559645574,241.858794329891,-75.6379138125787,-375.902762573685,13.1502726165585,-185.295547274189,172.145274657632, , , , , , , , , , , , , , , , , , , , , , , , , , , , , , , , , , , , , , , , , , , , , , , , , , , , , , , , , , , , ,
-142.522238944785,104.923533677862,247.445772622648,179.031559570483,316.227861690889,364.552051305089,242.245434032691,-76.4113797023199,-378.769850317823,18.7993526334612,-194.984005783715,176.184653150256, , , , , , , , , , , , , , , , , , , , , , , , , , , , , , , , , , , , , , , , , , , , , , , , , , , , , , , , , , , , ,
-154.818453518305,103.255356180652,258.073809698958,190.251868615115,321.298486752221,365.405019202387,242.234311583966,-77.6617940579056,-382.435913835599,25.7815486688263,-206.446131608631,180.664582939806, , , , , , , , , , , , , , , , , , , , , , , , , , , , , , , , , , , , , , , , , , , , , , , , , , , , , , , , , , , , ,
-168.880221628746,101.905142853013,270.78536448176,202.101887245556,326.397555932868,366.089114922137,241.883861602506,-79.3186583503973,-386.840127308259,33.4875393878666,-219.832793055253,186.345253667387, , , , , , , , , , , , , , , , , , , , , , , , , , , , , , , , , , , , , , , , , , , , , , , , , , , , , , , , , , , , ,
-184.327698656923,98.1901171475762,282.5178158045,214.531623387878,331.610016399532,366.703650247918,241.277468400482,-81.2802055346449,-391.883204207069,43.0687907546732,-233.42275723071,190.353966476039, , , , , , , , , , , , , , , , , , , , , , , , , , , , , , , , , , , , , , , , , , , , , , , , , , , , , , , , , , , , ,
-200.727707243308,94.248349373229,294.976056616538,227.449741788085,337.009916842452,367.355305360863,240.519145258567,-83.4193364907621,-397.433601087345,53.2396789350395,-247.851881929922,194.612202994884, , , , , , , , , , , , , , , , , , , , , , , , , , , , , , , , , , , , , , , , , , , , , , , , , , , , , , , , , , , , ,
-217.617774964095,92.1897647986208,309.807539762717,240.731447276093,342.659050063605,368.153086276965,239.727486130578,-85.5915437499209,-403.335960982129,62.7140050827369,-263.712657363405,200.998652280669, , , , , , , , , , , , , , , , , , , , , , , , , , , , , , , , , , , , , , , , , , , , , , , , , , , , , , , , , , , , ,
-234.531320313206,88.1613398079909,322.692660121198,254.22811507421,348.605984102448,369.202818855648,239.028388620825,-87.6440973317442,-409.420915200676,73.1849902526077,-278.611990217202,205.426999964595, , , , , , , , , , , , , , , , , , , , , , , , , , , , , , , , , , , , , , , , , , , , , , , , , , , , , , , , , , , , ,
-251.021911351001,84.4386574494794,335.460568800481,267.777663444223,354.885361580441,370.913722415262,238.547172454774,-89.4256722609359,-415.515291728404,83.2916269507606,-293.24124007574,209.949613124981, , , , , , , , , , , , , , , , , , , , , , , , , , , , , , , , , , , , , , , , , , , , , , , , , , , , , , , , , , , , ,
-266.684726864301,78.9368661947675,345.62159305907,281.214694285718,361.517400289723,374.022171854383,238.400738217184,-90.7956337627568,-421.451878575106,93.8739303347669,-306.153159961685,212.279229626919, , , , , , , , , , , , , , , , , , , , , , , , , , , , , , , , , , , , , , , , , , , , , , , , , , , , , , , , , , , , ,
-281.173806694638,70.6701252979211,351.84393199256,294.379577129453,368.50757299457,378.456500506906,238.690340400787,-91.6323287513217,-427.078094670801,105.251840698358,-316.508869343598,211.257028645241, , , , , , , , , , , , , , , , , , , , , , , , , , , , , , , , , , , , , , , , , , , , , , , , , , , , , , , , , , , , ,
-294.214277902079,63.3627318861273,357.577009788208,307.125874376663,375.846463007909,381.57019222936,239.4954186728,-91.8399105083392,-432.263142032718,115.425773007976,-325.895643845143,210.469870837168, , , , , , , , , , , , , , , , , , , , , , , , , , , , , , , , , , , , , , , , , , , , , , , , , , , , , , , , , , , , ,
-305.609329465387,54.5471125013988,360.156441966787,319.325755236676,383.50978866751,387.598360814904,240.868783846464,-91.3534037935485,-436.90339618411,125.531108481994,-332.882885716086,207.351777234094, , , , , , , , , , , , , , , , , , , , , , , , , , , , , , , , , , , , , , , , , , , , , , , , , , , , , , , , , , , , ,
-315.242168008047,47.1871575032407,362.429325511288,330.873298316603,391.458594951573,392.655335801367,242.833333556095,-90.1418681585912,-440.92592596003,134.027505252403,-338.835746759667,204.808241507265, , , , , , , , , , , , , , , , , , , , , , , , , , , , , , , , , , , , , , , , , , , , , , , , , , , , , , , , , , , , ,
-323.073498708807,39.2357804188638,362.309279127672,341.685824821697,399.639653469281,397.788746557906,245.380403921562,-88.2096188871308,-444.290128101246,141.918859144972,-342.691388918239,200.772529773269, , , , , , , , , , , , , , , , , , , , , , , , , , , , , , , , , , , , , , , , , , , , , , , , , , , , , , , , , , , , ,
-329.135270068903,32.2648101647602,361.400080233664,351.703615048743,407.986190442076,403.784113790101,248.819698942829,-85.5955194637584,-446.987527323469,148.435229952071,-345.267675151283,196.832445199213, , , , , , , , , , , , , , , , , , , , , , , , , , , , , , , , , , , , , , , , , , , , , , , , , , , , , , , , , , , , ,
-333.521527378622,25.3026388616782,358.824166240301,360.888506660582,416.41913769789,411.789992738839,252.718493625739,-83.1843519780793,-449.039841425959,154.109444258472,-346.172846809461,192.063402550991, , , , , , , , , , , , , , , , , , , , , , , , , , , , , , , , , , , , , , , , , , , , , , , , , , , , , , , , , , , , ,
-336.377253553007,21.1083766717408,357.485630224749,369.22191897181,424.849121494796,417.614419145584,256.912548039769,-79.8536074438605,-450.495462220685,157.634438440633,-346.931441888877,189.297003448246, , , , , , , , , , , , , , , , , , , , , , , , , , , , , , , , , , , , , , , , , , , , , , , , , , , , , , , , , , , , ,
-337.886055084038,16.1283831631328,354.014438247172,376.702779556822,433.179334114032,423.915234587893,262.554008878436,-76.1324230490834,-451.424573452386,160.878835960453,-345.950246665604,185.071410705153, , , , , , , , , , , , , , , , , , , , , , , , , , , , , , , , , , , , , , , , , , , , , , , , , , , , , , , , , , , , ,
-338.25748850249,10.3567960633173,348.614284565808,383.345672561231,441.309283197088,432.115516657883,267.101481434991,-72.0108482123103,-451.913214308305,163.950346219586,-343.435886534148,179.485540314563, , , , , , , , , , , , , , , , , , , , , , , , , , , , , , , , , , , , , , , , , , , , , , , , , , , , , , , , , , , , ,
-337.714717010984,8.09414030358369,345.808857314569,389.179334778928,449.139232297558,438.870296690178,273.153975973705,-68.033405144886,-452.05667832501,164.8102883537,-341.761787162775,176.951498809077, , , , , , , , , , , , , , , , , , , , , , , , , , , , , , , , , , , , , , , , , , , , , , , , , , , , , , , , , , , , ,
-336.483042897945,6.15024223022658,342.633285128173,394.245446608096,456.574989224728,444.397901394277,278.717546002906,-64.0895759232014,-451.952689218572,165.166400333859,-339.558164013058,174.3917636792, , , , , , , , , , , , , , , , , , , , , , , , , , , , , , , , , , , , , , , , , , , , , , , , , , , , , , , , , , , , ,
-334.779716149084,4.46332595411661,339.243042103202,398.597531116969,463.532604123566,451.14235143669,283.298927348089,-59.9288534837772,-451.694812968767,165.158195097484,-337.011379126142,171.85318402866, , , , , , , , , , , , , , , , , , , , , , , , , , , , , , , , , , , , , , , , , , , , , , , , , , , , , , , , , , , , ,
-332.805314569245,2.97057057306358,335.77588514231,402.299701972663,469.942522695497,458.916714091597,286.994777801513,-55.9008484824446,-451.366557188924,164.917371998091,-334.290599855777,169.373227857687, , , , , , , , , , , , , , , , , , , , , , , , , , , , , , , , , , , , , , , , , , , , , , , , , , , , , , , , , , , , ,
-330.736922558302,1.61214933941085,332.349071897714,405.42500190415,475.752800763046,463.043717221101,292.483394019555,-52.8975393035023,-451.036575106038,164.562386609445,-331.542997228007,166.980610618563, , , , , , , , , , , , , , , , , , , , , , , , , , , , , , , , , , , , , , , , , , , , , , , , , , , , , , , , , , , , ,
-328.723266195246,0.33443143056968,329.057697625817,408.053152449824,480.931108648393,469.514421874882,295.460116431306,-50.0687914010712,-450.755320706926,164.194417382338,-328.89048191053,164.696064528194, , , , , , , , , , , , , , , , , , , , , , , , , , , , , , , , , , , , , , , , , , , , , , , , , , , , , , , , , , , , ,
-326.881869084708,-0.907853696195957,325.974015388513,410.267678717427,485.465409730073,474.769453300417,299.714410595762,-47.4156335925397,-450.553382674329,163.894861390452,-326.42794223661,162.533080846159, , , , , , , , , , , , , , , , , , , , , , , , , , , , , , , , , , , , , , , , , , , , , , , , , , , , , , , , , , , , ,
-325.298182816473,-2.1505348435993,323.147647972874,412.152539939696,489.36335584956,477.694180845863,302.997330482075,-45.6610460885188,-450.441560734954,163.724358830036,-324.222915394673,160.498556564638, , , , , , , , , , , , , , , , , , , , , , , , , , , , , , , , , , , , , , , , , , , , , , , , , , , , , , , , , , , , ,
-324.026527295592,-3.41989594351969,320.606631352073,413.788533773742,492.650576728345,482.353930462481,304.999821767237,-43.7204640031753,-450.591365864104,163.723211619556,-322.316579323832,158.593367704277, , , , , , , , , , , , , , , , , , , , , , , , , , , , , , , , , , , , , , , , , , , , , , , , , , , , , , , , , , , , ,
-323.092560567343,-4.73335035762909,318.359210209715,415.249806515393,495.368132135934,485.313461292106,307.906853483257,-42.8402266843948,-450.997891829041,163.912955462486,-320.725885388529,156.812929926044, , , , , , , , , , , , , , , , , , , , , , , , , , , , , , , , , , , , , , , , , , , , , , , , , , , , , , , , , , , , ,
-322.496913171856,-6.10067201455593,316.396241157301,416.60078073242,497.569430074331,486.080642295063,308.608976074749,-41.9653889961489,-451.672058693204,164.298792593206,-319.446577164578,155.147784571373, , , , , , , , , , , , , , , , , , , , , , , , , , , , , , , , , , , , , , , , , , , , , , , , , , , , , , , , , , , , ,
-322.219591601221,-7.52558828348435,314.694003317738,417.893730730807,499.31688655025,486.716727797346,308.958242981721,-41.4223893752808,-452.651726946877,164.872589942353,-318.456797459479,153.584207517127, , , , , , , , , , , , , , , , , , , , , , , , , , , , , , , , , , , , , , , , , , , , , , , , , , , , , , , , , , , , ,
-322.224764978433,-9.00754882993704,313.217216148497,419.167142653281,500.678528254998,487.610556858165,311.07222838529,-41.4983339612684,-453.502081616144,165.616156904185,-317.720990563464,152.104833659281, , , , , , , , , , , , , , , , , , , , , , , , , , , , , , , , , , , , , , , , , , , , , , , , , , , , , , , , , , , , ,
-322.465571250559,-10.5434562713789,311.922114979181,420.444929903345,501.72465510034,490.020118945497,310.650511517084,-40.9316778077466,-453.599148195545,166.504513760969,-317.193843114869,150.689329353902, , , , , , , , , , , , , , , , , , , , , , , , , , , , , , , , , , , , , , , , , , , , , , , , , , , , , , , , , , , , ,
-322.888618180615,-12.1291211095644,310.759497071052,421.736540938659,502.524620086819,492.00044865729,312.086065716983,-40.6824350293621,-453.924734224319,167.50886964509,-316.824057625833,149.315187980744, , , , , , , , , , , , , , , , , , , , , , , , , , , , , , , , , , , , , , , , , , , , , , , , , , , , , , , , , , , , ,
-323.437935504204,-13.7602394812114,309.677696022994,423.037971432772,503.166470427247,492.067537379876,312.561488901945,-40.8669062215561,-454.202106270734,168.599087492708,-316.557815763598,147.958728270892, , , , , , , , , , , , , , , , , , , , , , , , , , , , , , , , , , , , , , , , , , , , , , , , , , , , , , , , , , , , ,
-324.058255097943,-15.432793127672,308.625461970273,424.33365473969,507.082530674105,493.379022560846,314.965255007153,-40.9425012816457,-454.206374674544,169.745524112808,-316.341858534107,146.596334421301, , , , , , , , , , , , , , , , , , , , , , , , , , , , , , , , , , , , , , , , , , , , , , , , , , , , , , , , , , , , ,
-324.697605834658,-17.1428863977379,307.554719436921,425.599149002976,508.134677599036,494.725207951783,315.249702648805,-40.3015847860504,-453.938922386579,170.920246116198,-316.126162635788,145.205916519592, , , , , , , , , , , , , , , , , , , , , , , , , , , , , , , , , , , , , , , , , , , , , , , , , , , , , , , , , , , , ,
-325.309248586818,-18.88610573324,306.423142853579,426.804465469789,511.432326448205,495.879419306929,315.165543921678,-39.564314748309,-452.981709351626,172.097677160029,-315.866195720198,143.76851856017, , , , , , , , , , , , , , , , , , , , , , , , , , , , , , , , , , , , , , , , , , , , , , , , , , , , , , , , , , , , ,
-325.852938523625,-20.6565032364905,305.196435287136,427.917787640441,513.982304719554,496.920120609739,317.227095753817,-38.7248701069118,-452.261418635843,173.254720880058,-315.52468690538,142.269966025323, , , , , , , , , , , , , , , , , , , , , , , , , , , , , , , , , , , , , , , , , , , , , , , , , , , , , , , , , , , , ,
-326.295457397457,-22.4453189194882,303.85013847797,428.909230094217,516.617982547829,496.981685599054,319.474738296244,-37.790797033035,-451.062723260863,174.370388158473,-315.072797937713,140.702409779242, , , , , , , , , , , , , , , , , , , , , , , , , , , , , , , , , , , , , , , , , , , , , , , , , , , , , , , , , , , , ,
-326.610394003417,-24.2396212616449,302.370772741774,429.754224403051,520.004173298953,497.990111277609,320.06735155738,-36.7811241300353,-449.918251851181,175.425007632531,-314.490583372595,139.065575740065, , , , , , , , , , , , , , , , , , , , , , , , , , , , , , , , , , , , , , , , , , , , , , , , , , , , , , , , , , , , ,
-326.777282476419,-26.0211535400903,300.75612893633,430.436142875757,520.470827592301,499.094329219922,322.64308018487,-35.7238425555313,-448.80375362718,176.399218008255,-313.766705706373,137.36748769812, , , , , , , , , , , , , , , , , , , , , , , , , , , , , , , , , , , , , , , , , , , , , , , , , , , , , , , , , , , , ,
-326.780369700319,-27.7657511170395,299.014618583281,430.947882540668,521.344315335251,500.328027021371,324.139977531328,-34.6530582468974,-447.674870791509,177.273060408679,-312.897494141799,135.624433733121, , , , , , , , , , , , , , , , , , , , , , , , , , , , , , , , , , , , , , , , , , , , , , , , , , , , , , , , , , , , ,
-326.607388776498,-29.4436756140748,297.163713162424,431.292290381702,527.416626992769,501.683484284371,324.956012358742,-33.6061516425868,-446.613192866494,178.025532195286,-311.88555096946,133.860018774175, , , , , , , , , , , , , , , , , , , , , , , , , , , , , , , , , , , , , , , , , , , , , , , , , , , , , , , , , , , , ,
-326.248718735249,-31.0210898941212,295.227628841129,431.481465246645,527.917325497535,501.713273413527,325.328686829559,-32.6212404069927,-445.699077068656,178.634904314685,-310.738173788188,132.103269473504, , , , , , , , , , , , , , , , , , , , , , , , , , , , , , , , , , , , , , , , , , , , , , , , , , , , , , , , , , , , ,
-325.697217225941,-32.4627146341148,293.234502591827,431.535091326288,529.182286066772,502.210666580417,327.140780601258,-31.7351532245964,-444.680220339372,179.079965930028,-309.465859908883,130.385893978857, , , , , , , , , , , , , , , , , , , , , , , , , , , , , , , , , , , , , , , , , , , , , , , , , , , , , , , , , , , , ,
-324.948854706694,-33.735504636073,291.213350070622,431.478037282751,533.087016795899,502.993876964276,327.383872021316,-30.9820155969185,-443.384231748482,179.342179671383,-308.081102388657,128.738922717275, , , , , , , , , , , , , , , , , , , , , , , , , , , , , , , , , , , , , , , , , , , , , , , , , , , , , , , , , , , , ,
-325.207102022861,-34.8129804822541,290.394121540608,431.337504594921,533.055860220354,503.544446611518,327.407050038651,-30.3924371695204,-443.027358825735,180.010041252558,-307.800611781734,127.790570529178, , , , , , , , , , , , , , , , , , , , , , , , , , , , , , , , , , , , , , , , , , , , , , , , , , , , , , , , , , , , ,
-325.013635040627,-30.6240385556033,294.389596485025,431.140039183054,534.866799413828,504.023199818102,327.447787079648,-29.99318808462,-441.693968877739,177.818836798115,-309.701615762826,131.882778964712, , , , , , , , , , , , , , , , , , , , , , , , , , , , , , , , , , , , , , , , , , , , , , , , , , , , , , , , , , , , ,
-325.039029464911,-30.595319352199,294.443710112713,430.908729564936,536.385742458597,504.437342324354,327.849368358524,-29.8071806911382,-441.555768970335,177.817174408555,-309.741369788811,131.924195380258, , , , , , , , , , , , , , , , , , , , , , , , , , , , , , , , , , , , , , , , , , , , , , , , , , , , , , , , , , , , ,
-325.646399464694,-29.0392621014174,296.607137363278,430.660891638645,536.027234486236,503.721503408016,326.699225674815,-29.8535492430772,-440.585314760417,177.342830783056,-311.126768413985,133.783937630931, , , , , , , , , , , , , , , , , , , , , , , , , , , , , , , , , , , , , , , , , , , , , , , , , , , , , , , , , , , , ,
-326.276203721759,-25.8294657757423,300.446737946017,430.406482056121,537.686169299344,503.167203604073,326.326527980217,-30.1476441789639,-440.646936632101,176.05283474875,-313.361470833887,137.308636085138, , , , , , , , , , , , , , , , , , , , , , , , , , , , , , , , , , , , , , , , , , , , , , , , , , , , , , , , , , , , ,
-327.063842746018,-20.7949890363346,306.268853709685,430.147403539796,537.47159865799,504.288666108364,324.684083652896,-30.7008155289948,-441.226341086186,173.929415891176,-316.666348227851,142.736932336676, , , , , , , , , , , , , , , , , , , , , , , , , , , , , , , , , , , , , , , , , , , , , , , , , , , , , , , , , , , , ,
-327.671901025922,-16.0896233806528,311.58227764527,429.877784439893,537.82040778806,502.90284587397,323.694333571472,-31.519931728493,-440.327351771153,171.880762203287,-319.627089335595,147.746327132309, , , , , , , , , , , , , , , , , , , , , , , , , , , , , , , , , , , , , , , , , , , , , , , , , , , , , , , , , , , , ,
-328.604874548461,-13.8549000719648,314.749974476497,433.812062640842,536.600973894462,503.806691389228,322.374972056517,-32.606650025459,-439.218701983474,171.229887310213,-321.677424512478,150.447537202267, , , , , , , , , , , , , , , , , , , , , , , , , , , , , , , , , , , , , , , , , , , , , , , , , , , , , , , , , , , , ,
-329.496576283855,-12.1178122244795,317.378764059376,439.880612530086,538.005187216439,502.04024636086,320.021223342841,-33.956520397244,-440.626939622122,170.807194254167,-323.437670171615,152.630475917449, , , , , , , , , , , , , , , , , , , , , , , , , , , , , , , , , , , , , , , , , , , , , , , , , , , , , , , , , , , , ,
-328.301879678858,-8.58793333395295,319.713946344906,440.570158702961,544.74391264223,499.438454589978,318.113445891426,-35.5580690215245,-440.848234225074,168.444906506405,-324.007913011881,155.563006505477, , , , , , , , , , , , , , , , , , , , , , , , , , , , , , , , , , , , , , , , , , , , , , , , , , , , , , , , , , , , ,
-329.226090986548,-5.73704562661567,323.489045359933,448.437795207722,545.843844108183,498.749588578855,315.570486404703,-37.392060166979,-440.105690052252,167.481568306582,-326.35756817324,158.875999866659, , , , , , , , , , , , , , , , , , , , , , , , , , , , , , , , , , , , , , , , , , , , , , , , , , , , , , , , , , , , ,
-330.765490168107,-5.96357538551672,324.801914782591,451.819222714469,549.535239724813,497.881373539615,313.207277954462,-39.4311528818127,-440.68404394894,168.364532776812,-327.783702475348,159.419169698538, , , , , , , , , , , , , , , , , , , , , , , , , , , , , , , , , , , , , , , , , , , , , , , , , , , , , , , , , , , , ,
-332.040076865806,-4.73257525112911,327.307501614678,453.572809118409,556.02460023258,494.976053440781,310.37334435518,-41.6401331218551,-440.532009391832,168.386326058468,-329.673789240241,161.287463181775, , , , , , , , , , , , , , , , , , , , , , , , , , , , , , , , , , , , , , , , , , , , , , , , , , , , , , , , , , , , ,
-334.107830112741,-3.47504765760266,330.63278245514,455.677028855527,555.510898386333,491.868322220167,307.881013202602,-43.9768226087565,-439.874954646997,168.791438885172,-332.37030628394,163.578867398769, , , , , , , , , , , , , , , , , , , , , , , , , , , , , , , , , , , , , , , , , , , , , , , , , , , , , , , , , , , , ,
-335.250357910265,-3.08855266534135,332.161805244925,464.866535785193,560.696424865682,490.934891199438,305.119251361409,-46.3936742376734,-439.397910925511,169.169455287803,-333.706081577594,164.536626289793, , , , , , , , , , , , , , , , , , , , , , , , , , , , , , , , , , , , , , , , , , , , , , , , , , , , , , , , , , , , ,
-337.667334940404,-4.47488865023331,333.192446290171,464.193956736987,562.024333115873,489.613994664452,302.523743037608,-48.8399844229132,-438.75029985445,171.071111795318,-335.429890615287,164.35877881997, , , , , , , , , , , , , , , , , , , , , , , , , , , , , , , , , , , , , , , , , , , , , , , , , , , , , , , , , , , , ,
-337.777012687087,-4.28334369602624,333.493668991062,473.828814375471,565.79044714369,487.895222465738,300.503612582662,-51.2645861076596,-438.1405105218,171.030178191557,-335.635340839074,164.605162647519, , , , , , , , , , , , , , , , , , , , , , , , , , , , , , , , , , , , , , , , , , , , , , , , , , , , , , , , , , , , ,
-337.521079647135,-4.33086071394553,333.19021893319,477.629542075613,572.392055265452,485.295260681479,298.419892220052,-53.6188230992818,-437.553293977792,170.92597018054,-335.355649290162,164.429679109623, , , , , , , , , , , , , , , , , , , , , , , , , , , , , , , , , , , , , , , , , , , , , , , , , , , , , , , , , , , , ,
-339.881043099146,-4.48229399285799,335.398749106289,479.208203189589,578.951638736213,483.884013039805,296.510054563341,-55.8595486920251,-436.972142743393,172.181668546002,-337.639896102716,165.458227556716, , , , , , , , , , , , , , , , , , , , , , , , , , , , , , , , , , , , , , , , , , , , , , , , , , , , , , , , , , , , ,
-339.923015331347,-4.61446527577925,335.308550055569,478.209118685358,584.021933732294,482.529447671199,294.831827230727,-57.9518569490649,-436.380425248523,172.268740303563,-337.615782693457,165.347042389895, , , , , , , , , , , , , , , , , , , , , , , , , , , , , , , , , , , , , , , , , , , , , , , , , , , , , , , , , , , , ,
-339.074183009026,-4.62408797301657,334.450095036011,477.215057052444,585.228867244352,481.343826854041,293.453859948618,-59.8712652614642,-435.762556806265,171.849135491021,-336.762139022517,164.913003531498, , , , , , , , , , , , , , , , , , , , , , , , , , , , , , , , , , , , , , , , , , , , , , , , , , , , , , , , , , , , ,
-337.79879299561,-4.43274626594564,333.366046729666,476.22469651036,591.867861902253,480.132681125318,292.84661655827,-61.6051308102712,-435.105062865328,171.115769630778,-335.582419862637,164.466650231861, , , , , , , , , , , , , , , , , , , , , , , , , , , , , , , , , , , , , , , , , , , , , , , , , , , , , , , , , , , , ,
-336.089833792935,-3.98879345894318,332.101040333993,475.229410798249,592.036849569108,479.131482141135,291.794907976735,-63.153189394239,-434.397423085317,170.039313625939,-334.095437063463,164.056123437526, , , , , , , , , , , , , , , , , , , , , , , , , , , , , , , , , , , , , , , , , , , , , , , , , , , , , , , , , , , , ,
-334.228821837781,-3.26650240350307,330.962319434279,474.214778540451,592.279022833827,478.713721402874,291.071145373785,-64.5272251412759,-433.632641960713,168.747662120642,-332.595570636029,163.847908515389, , , , , , , , , , , , , , , , , , , , , , , , , , , , , , , , , , , , , , , , , , , , , , , , , , , , , , , , , , , , ,
-332.248453457119,-2.26316085126552,329.985292605854,473.16302792132,592.486514591885,478.55818918175,290.308734124439,-65.7499838181622,-432.807551171058,167.255807154192,-331.116873031486,163.861065877295, , , , , , , , , , , , , , , , , , , , , , , , , , , , , , , , , , , , , , , , , , , , , , , , , , , , , , , , , , , , ,
-330.190224378762,-0.994978015418269,329.195246363345,472.056063583036,592.537587964728,478.642237019145,289.846247750681,-66.8535105780345,-431.922891836475,165.59260119709,-329.692735371052,164.100134173964, , , , , , , , , , , , , , , , , , , , , , , , , , , , , , , , , , , , , , , , , , , , , , , , , , , , , , , , , , , , ,
-328.101641446846,0.0551960410626862,328.15683748791,470.878659125137,592.30318119178,476.366815227299,289.282972041579,-67.8771178094314,-430.983244011641,164.023222702892,-328.129239467377,164.106016764487, , , , , , , , , , , , , , , , , , , , , , , , , , , , , , , , , , , , , , , , , , , , , , , , , , , , , , , , , , , , ,
-326.033663249436,0.720846951520912,326.754510200958,469.621399101585,591.654562885934,474.077634311678,287.884131006931,-68.8651701964115,-429.996864479565,162.656408148958,-326.394086725197,163.73767857624, , , , , , , , , , , , , , , , , , , , , , , , , , , , , , , , , , , , , , , , , , , , , , , , , , , , , , , , , , , , ,
-324.038530673596,2.50748126974361,326.546011943341,468.283021482208,590.471780181398,471.559157184969,286.196780917907,-69.864816472588,-428.975460227338,160.765524701926,-325.292271308468,164.526746606543, , , , , , , , , , , , , , , , , , , , , , , , , , , , , , , , , , , , , , , , , , , , , , , , , , , , , , , , , , , , ,
-322.167935430736,4.39107484715953,326.559010277896,466.871934364852,588.652580083023,468.924227139227,284.444119711813,-70.923715162997,-427.933869950251,158.888430291788,-324.363472854315,165.475042562529, , , , , , , , , , , , , , , , , , , , , , , , , , , , , , , , , , , , , , , , , , , , , , , , , , , , , , , , , , , , ,
-320.471312153372,4.73117980003065,325.202491953404,465.406827026636,582.433410698616,465.63452040734,282.130318243675,-72.0877208150889,-426.889571732647,157.870066176671,-322.836902053387,164.966835876718, , , , , , , , , , , , , , , , , , , , , , , , , , , , , , , , , , , , , , , , , , , , , , , , , , , , , , , , , , , , ,
-318.993988170334,3.47579264463513,322.46978081497,463.916423764551,576.206660234926,461.345595592628,279.494704148703,-73.3984448996532,-425.861910890379,157.759097762849,-320.731884492651,162.972786729803, , , , , , , , , , , , , , , , , , , , , , , , , , , , , , , , , , , , , , , , , , , , , , , , , , , , , , , , , , , , ,
-317.774990909124,2.1628113711605,319.937802280285,462.438509257482,570.748057646344,456.209320414358,275.67673671018,-74.8906015578466,-424.87096756256,157.806089768981,-318.856396594704,161.050306825724, , , , , , , , , , , , , , , , , , , , , , , , , , , , , , , , , , , , , , , , , , , , , , , , , , , , , , , , , , , , ,
-316.844458538701,1.71821145683145,318.562669995533,461.018377176373,560.463700415583,450.145415088807,271.850840935948,-76.5891008102624,-423.936056383623,157.563123540935,-317.703564267116,160.140440726183, , , , , , , , , , , , , , , , , , , , , , , , , , , , , , , , , , , , , , , , , , , , , , , , , , , , , , , , , , , , ,
-316.220767061059,0.546370423666872,316.767137484727,459.706833379891,547.822188234765,444.397901394277,267.560022561467,-78.505946469975,-423.073941210768,157.837198318696,-316.493952272892,158.656753954197, , , , , , , , , , , , , , , , , , , , , , , , , , , , , , , , , , , , , , , , , , , , , , , , , , , , , , , , , , , , ,
-315.907624983146,-1.26434412043398,314.643280862713,458.557851242614,534.447830163666,437.090991338716,262.808339710251,-80.6370971508847,-422.296919165495,158.58598455179,-315.275452922928,156.68946837114, , , , , , , , , , , , , , , , , , , , , , , , , , , , , , , , , , , , , , , , , , , , , , , , , , , , , , , , , , , , ,
-315.891476345501,-3.29254463214272,312.59893171336,457.625953597684,523.474544562645,428.982582118423,257.672644760545,-82.959526276876,-421.61096569362,159.592010488822,-314.24520402943,154.653193540609, , , , , , , , , , , , , , , , , , , , , , , , , , , , , , , , , , , , , , , , , , , , , , , , , , , , , , , , , , , , ,
-316.13960535387,-5.56160722040011,310.577998133471,456.963387381893,514.832709370099,420.432300987538,252.111729926745,-85.4287636423662,-421.014145642558,160.850606287135,-313.358801743669,152.508195456536, , , , , , , , , , , , , , , , , , , , , , , , , , , , , , , , , , , , , , , , , , , , , , , , , , , , , , , , , , , , ,
-316.599349285013,-8.08681117125332,308.51253811376,456.617159094089,502.612325304472,414.415449468315,247.019159518653,-87.9772163443056,-420.495489589708,162.343080228133,-312.555943699386,150.212863471254, , , , , , , , , , , , , , , , , , , , , , , , , , , , , , , , , , , , , , , , , , , , , , , , , , , , , , , , , , , , ,
-317.198763538583,-10.8751039613988,306.323659577185,456.62601286706,496.796251966883,409.01819523711,242.292020167129,-90.5135426880004,-420.314847414294,164.036933749991,-311.761211557883,147.724277807894, , , , , , , , , , , , , , , , , , , , , , , , , , , , , , , , , , , , , , , , , , , , , , , , , , , , , , , , , , , , ,
-317.8489168127,-12.9743438248746,304.874572987827,457.017457856125,487.232523648833,402.898435830644,237.842342819153,-92.923287177038,-420.730557963733,165.411630318787,-311.361744900263,145.950114581477, , , , , , , , , , , , , , , , , , , , , , , , , , , , , , , , , , , , , , , , , , , , , , , , , , , , , , , , , , , , ,
-318.44776349012,-15.8698403432435,302.577923146878,457.804978189572,485.370501087339,398.412189897007,234.657015119964,-95.0708950719074,-420.347860742288,167.158801916682,-310.512843318498,143.354041401818, , , , , , , , , , , , , , , , , , , , , , , , , , , , , , , , , , , , , , , , , , , , , , , , , , , , , , , , , , , , ,
-318.885327051928,-19.2745170486263,299.610810003302,458.985577444438,485.216801018975,398.127730328127,232.311378954929,-96.803131850196,-420.907085584132,169.079922050277,-309.248068527614,140.168146477339, , , , , , , , , , , , , , , , , , , , , , , , , , , , , , , , , , , , , , , , , , , , , , , , , , , , , , , , , , , , ,
-319.049792329725,-22.8304027017365,296.219389627989,460.537815832456,487.226107651489,399.719489220086,231.836568323114,-97.9538403681615,-420.419075079959,170.940097515731,-307.634590978856,136.694493463127, , , , , , , , , , , , , , , , , , , , , , , , , , , , , , , , , , , , , , , , , , , , , , , , , , , , , , , , , , , , ,
-318.834055087072,-26.5001667412402,292.333888345833,462.420485558307,491.436835133547,401.68890849226,232.770609247375,-98.3498686738674,-420.832319891751,172.667110914156,-305.583971716452,132.916860802297, , , , , , , , , , , , , , , , , , , , , , , , , , , , , , , , , , , , , , , , , , , , , , , , , , , , , , , , , , , , ,
-318.142292087711,-30.2392806200054,287.903011467707,464.572036833747,498.023658556224,409.21240711995,236.498207512511,-97.8178900075638,-418.694708455185,174.190786353858,-303.022651777708,128.831865423851, , , , , , , , , , , , , , , , , , , , , , , , , , , , , , , , , , , , , , , , , , , , , , , , , , , , , , , , , , , , ,
-316.89615471653,-32.0402752580334,284.855879458498,466.910830275454,507.665843864045,417.557161106647,241.771450701529,-96.1917193535494,-417.36019862041,174.468214987282,-300.876017087513,126.407802100233, , , , , , , , , , , , , , , , , , , , , , , , , , , , , , , , , , , , , , , , , , , , , , , , , , , , , , , , , , , , ,
-315.040214456214,-35.0614340010219,279.978780455193,469.33627085123,518.821667478146,430.788886651013,249.435960976963,-93.3196253368694,-414.786983409542,175.050824228618,-297.509497455702,122.458673227086, , , , , , , , , , , , , , , , , , , , , , , , , , , , , , , , , , , , , , , , , , , , , , , , , , , , , , , , , , , , ,
-312.546286729117,-38.2152947988988,274.33099193022,471.730870246473,531.147586897631,447.071127126659,260.505343201238,-89.0710709727189,-412.880068682376,175.380790764008,-293.438639329668,118.057848565661, , , , , , , , , , , , , , , , , , , , , , , , , , , , , , , , , , , , , , , , , , , , , , , , , , , , , , , , , , , , ,
-309.416263708513,-40.4328744531543,268.98338925536,473.963258545802,545.195528175962,464.569867894549,272.964921281447,-83.34232231287,-409.827519860684,174.924569080834,-289.199826481936,114.275257401104, , , , , , , , , , , , , , , , , , , , , , , , , , , , , , , , , , , , , , , , , , , , , , , , , , , , , , , , , , , , ,
-305.683154429383,-40.1315084406409,265.551645988743,475.892090731517,558.165611242957,483.582712861254,288.637456419431,-76.0604560556305,-406.96718459781,172.907331435012,-285.617400209063,112.710068774052, , , , , , , , , , , , , , , , , , , , , , , , , , , , , , , , , , , , , , , , , , , , , , , , , , , , , , , , , , , , ,
-301.410192652151,-41.7173311267228,259.69286152543,477.370663180807,571.976510889279,503.116555187309,304.83496939393,-67.1854626317492,-403.999304764075,171.563761889437,-280.55152708879,108.987765199354, , , , , , , , , , , , , , , , , , , , , , , , , , , , , , , , , , , , , , , , , , , , , , , , , , , , , , , , , , , , ,
-296.688094864916,-42.6865248327944,254.001570032123,478.251901971471,583.458221438691,521.826962428872,322.981906436981,-56.7103416594689,-400.637636555985,169.687309848855,-275.344832448519,105.657522599665, , , , , , , , , , , , , , , , , , , , , , , , , , , , , , , , , , , , , , , , , , , , , , , , , , , , , , , , , , , , ,
-291.630756074269,-40.4837481196481,251.147007954622,478.393257747206,590.371067511106,538.88508216586,342.130163883708,-44.6592848223706,-396.880258756979,166.057252096958,-271.388882014445,105.331629917488, , , , , , , , , , , , , , , , , , , , , , , , , , , , , , , , , , , , , , , , , , , , , , , , , , , , , , , , , , , , ,
-286.369804028174,-34.9209431725466,251.448860855628,477.660971055955,594.31108662284,553.008550657059,361.340654349828,-31.0842254460197,-392.727461994023,160.64537360036,-268.9093324419,108.263958841542, , , , , , , , , , , , , , , , , , , , , , , , , , , , , , , , , , , , , , , , , , , , , , , , , , , , , , , , , , , , ,
-281.048485732152,-28.2556388230745,252.792846909078,475.933153006339,591.562158596297,560.88095090628,378.492177724455,-16.0602090414743,-388.180266105139,154.652062277613,-266.920666320614,112.268604043003, , , , , , , , , , , , , , , , , , , , , , , , , , , , , , , , , , , , , , , , , , , , , , , , , , , , , , , , , , , , ,
-275.815348297433,-21.5856810070874,254.229667290346,473.101141261746,580.074393057994,562.433306662364,395.781705274168,0.319805027447515,-383.239459549361,148.70051465226,-265.022507793889,116.32199314163, , , , , , , , , , , , , , , , , , , , , , , , , , , , , , , , , , , , , , , , , , , , , , , , , , , , , , , , , , , , ,
-270.818107233218,-11.4462659687064,259.371841264512,469.068637713052,560.811599989429,556.233091432323,410.509531736713,17.950004583756,-377.905324460147,141.132186600962,-265.094974248864,123.962787647904, , , , , , , , , , , , , , , , , , , , , , , , , , , , , , , , , , , , , , , , , , , , , , , , , , , , , , , , , , , , ,
-266.197973103167,0.539399085985792,266.737372189153,463.748226674468,530.207245125173,540.950624771691,421.649748917004,36.7159550357458,-372.178098804398,132.82928700859,-266.467672646159,133.63838563757, , , , , , , , , , , , , , , , , , , , , , , , , , , , , , , , , , , , , , , , , , , , , , , , , , , , , , , , , , , , ,
-262.084553096182,14.2774414438601,276.361994540043,457.055033167165,489.287396123362,516.346699193047,428.075895172219,56.4974377988044,-366.059088917658,123.903555826161,-269.223273818112,145.319717991952, , , , , , , , , , , , , , , , , , , , , , , , , , , , , , , , , , , , , , , , , , , , , , , , , , , , , , , , , , , , ,
-258.591301144063,28.186107832286,286.777408976351,448.897535204957,437.051130601352,479.660509013881,432.207540144125,77.1695449130864,-359.552211788876,115.202596655889,-272.684355060206,157.481758404319, , , , , , , , , , , , , , , , , , , , , , , , , , , , , , , , , , , , , , , , , , , , , , , , , , , , , , , , , , , , ,
-255.811399700199,45.3377302467517,301.149129946952,439.165915738158,374.308585636966,431.212161840287,429.869151717662,98.6019186707588,-352.665652001171,105.236834726724,-278.480264823574,173.243430096852, , , , , , , , , , , , , , , , , , , , , , , , , , , , , , , , , , , , , , , , , , , , , , , , , , , , , , , , , , , , ,
-253.813929226489,60.7588765856214,314.572805812111,427.718824006842,298.473766126857,370.6821956147,422.479650621991,120.656290087447,-345.413279306261,96.5275263204336,-284.193367519299,187.665841198867, , , , , , , , , , , , , , , , , , , , , , , , , , , , , , , , , , , , , , , , , , , , , , , , , , , , , , , , , , , , ,
-252.640203573416,80.8498835767292,333.490087150147,414.369943700976,211.111444231642,298.356909451907,411.692934960225,143.182766030619,-337.815485243405,85.8951599983435,-293.065145361781,207.169985363439, , , , , , , , , , , , , , , , , , , , , , , , , , , , , , , , , , , , , , , , , , , , , , , , , , , , , , , , , , , , ,
-252.300204524455,102.090104786422,354.390309310879,398.876199240046,113.705560329475,215.785001056452,394.798838425898,166.01560773276,-329.89914817936,75.1050498690164,-303.345256917666,228.240207048651, , , , , , , , , , , , , , , , , , , , , , , , , , , , , , , , , , , , , , , , , , , , , , , , , , , , , , , , , , , , ,
-252.769125234058,123.08447053843,375.853595772489,380.929611511896,5.98425852733538,120.392338413849,369.948265677028,188.969461298191,-321.696509154363,64.8423273478137,-314.311360503273,249.46903315546, , , , , , , , , , , , , , , , , , , , , , , , , , , , , , , , , , , , , , , , , , , , , , , , , , , , , , , , , , , , ,
-253.723816795985,144.693514041448,398.417330837434,360.154633744234,-111.607218439568,14.4472879398854,341.172480254063,211.837080658124,-313.242820470843,54.5151513772686,-326.070573816709,271.555422439441, , , , , , , , , , , , , , , , , , , , , , , , , , , , , , , , , , , , , , , , , , , , , , , , , , , , , , , , , , , , ,
-255.435730466032,167.486977219865,422.922707685898,335.731700143684,-237.493025499903,-99.1673953431422,305.632829047249,234.389493917314,-304.572711155963,43.974376623083,-339.179219075964,295.204842452883, , , , , , , , , , , , , , , , , , , , , , , , , , , , , , , , , , , , , , , , , , , , , , , , , , , , , , , , , , , , ,
-257.427562334704,186.954224394474,444.381786729179,306.167854594766,-370.266399512581,-220.665327910499,266.249009083714,256.379302472008,-295.715305550465,35.2366689701145,-350.90467453194,315.668005561827, , , , , , , , , , , , , , , , , , , , , , , , , , , , , , , , , , , , , , , , , , , , , , , , , , , , , , , , , , , , ,
-258.860148136169,208.888173360619,467.74832149679,273.650141970897,-509.544394576422,-349.327556678155,218.77253100085,277.547398787405,-286.688236869185,24.9859873877751,-363.304234816479,338.318247428705, , , , , , , , , , , , , , , , , , , , , , , , , , , , , , , , , , , , , , , , , , , , , , , , , , , , , , , , , , , , ,
-260.943834526906,229.803227180652,490.747061707559,236.132482765526,-651.818768001142,-485.522806763061,167.68405889043,297.632902356229,-277.490811878432,15.5703036731265,-375.845448117231,360.275144444106, , , , , , , , , , , , , , , , , , , , , , , , , , , , , , , , , , , , , , , , , , , , , , , , , , , , , , , , , , , , ,
-262.222029387526,246.793683013361,509.015712400888,193.803466278636,-796.768911227547,-626.33378457138,111.078839140759,316.38560795469,-268.096702658147,7.71417318708259,-385.618870894206,377.904697707125, , , , , , , , , , , , , , , , , , , , , , , , , , , , , , , , , , , , , , , , , , , , , , , , , , , , , , , , , , , , ,
-264.091808992047,264.613656276554,528.705465268602,144.743175141049,-943.355699404731,-773.78539996134,47.3488640837567,333.579777734661,-258.446663711516,-0.260923642253914,-396.398637130323,396.659560772579, , , , , , , , , , , , , , , , , , , , , , , , , , , , , , , , , , , , , , , , , , , , , , , , , , , , , , , , , , , , ,
-264.209900407077,279.476554169204,543.686454576282,90.1473945833583,-1092.03432866139,-922.181367576216,-20.1225614850063,349.027770129575,-248.441878585976,-7.63332688106377,-403.948177491678,411.581504372743, , , , , , , , , , , , , , , , , , , , , , , , , , , , , , , , , , , , , , , , , , , , , , , , , , , , , , , , , , , , ,
-263.691308622603,291.091419682998,554.782728305602,26.4883936346359,-1239.4578748561,-1074.61173121456,-93.2201197404858,362.591884311699,-237.938592323699,-13.7000555301975,-409.237018464101,422.9370739943, , , , , , , , , , , , , , , , , , , , , , , , , , , , , , , , , , , , , , , , , , , , , , , , , , , , , , , , , , , , ,
-261.445054337952,302.371686718511,563.816741056464,-44.2609316171432,-1383.84539165245,-1229.08688348794,-171.314743127965,374.192980956067,-226.523231320479,-20.4633161902799,-412.630897697207,433.094213887488, , , , , , , , , , , , , , , , , , , , , , , , , , , , , , , , , , , , , , , , , , , , , , , , , , , , , , , , , , , , ,
-257.187173583149,311.219545555143,568.406719138293,-126.113388927163,-1526.26762636676,-1381.29479846992,-251.828164525272,383.814905134216,-214.294644356313,-27.0161859859972,-412.79694636072,439.813132346719, , , , , , , , , , , , , , , , , , , , , , , , , , , , , , , , , , , , , , , , , , , , , , , , , , , , , , , , , , , , ,
-249.712588831237,316.937412267668,566.650001098907,-208.001061263972,-1665.15126896496,-1536.6158777,-338.224569724725,391.504369912459,-200.27158758534,-33.6124117182156,-408.181294965071,441.793706683288, , , , , , , , , , , , , , , , , , , , , , , , , , , , , , , , , , , , , , , , , , , , , , , , , , , , , , , , , , , , ,
-238.768440236321,320.942925961372,559.711366197694,-296.847152588065,-1804.04580751894,-1689.91905106122,-425.892534276368,397.366587027941,-185.167637879847,-41.0872428625256,-399.239903217007,440.327146079534, , , , , , , , , , , , , , , , , , , , , , , , , , , , , , , , , , , , , , , , , , , , , , , , , , , , , , , , , , , , ,
-225.135344854352,322.446559848479,547.581904702832,-398.476843599355,-1935.78013441897,-1840.72769870154,-517.23529567042,401.557408933908,-167.06881745185,-48.6556074970633,-386.358624778591,435.014232275656, , , , , , , , , , , , , , , , , , , , , , , , , , , , , , , , , , , , , , , , , , , , , , , , , , , , , , , , , , , , ,
-207.102522123271,320.312690119996,527.415212243269,-501.566554857617,-2064.22530455415,-1991.35738982433,-612.115618812093,404.273010451295,-147.701708087312,-56.6050839983626,-367.258867183269,423.863951181633, , , , , , , , , , , , , , , , , , , , , , , , , , , , , , , , , , , , , , , , , , , , , , , , , , , , , , , , , , , , ,
-182.322174755316,317.938232078933,500.26040683425,-614.0838551922,-2190.23871201318,-2142.04471740507,-709.851311789174,405.738188370943,-124.580473299504,-67.8080286618088,-341.291290794782,409.099319456592, , , , , , , , , , , , , , , , , , , , , , , , , , , , , , , , , , , , , , , , , , , , , , , , , , , , , , , , , , , , ,
-155.102269335775,310.688769692851,465.791039028627,-732.898702377107,-2312.55634063231,-2289.58347689752,-808.30161265265,406.194233905661,-99.4360101751628,-77.7932501785384,-310.4466541822,388.23990436074, , , , , , , , , , , , , , , , , , , , , , , , , , , , , , , , , , , , , , , , , , , , , , , , , , , , , , , , , , , , ,
-122.694422210512,305.051647274021,427.746069484535,-855.583038072929,-2434.76874092612,-2435.61963678419,-909.951448069145,405.887126106135,-68.6006203030035,-91.1786125317546,-275.220245847523,366.398858379279, , , , , , , , , , , , , , , , , , , , , , , , , , , , , , , , , , , , , , , , , , , , , , , , , , , , , , , , , , , , ,
-83.3163789660126,298.108458023263,381.424836989277,-984.980057914802,-2553.23301290519,-2583.07449318623,-1012.163286012,405.056620238519,-36.2081192832972,-107.396039528625,-232.370607977644,339.766647506271, , , , , , , , , , , , , , , , , , , , , , , , , , , , , , , , , , , , , , , , , , , , , , , , , , , , , , , , , , , , ,
-39.2422912559037,290.058705995603,329.300997251508,-1122.08454672759,-2673.61039199757,-2728.01329189164,-1115.9927250925,403.92671873863,0.588714913719571,-125.40820736985,-184.271644253705,309.679851623556, , , , , , , , , , , , , , , , , , , , , , , , , , , , , , , , , , , , , , , , , , , , , , , , , , , , , , , , , , , , ,
10.5267234125471,281.074932024564,270.548208612017,-1264.87760718483,-2791.06298303665,-2871.78997153711,-1221.15889200514,402.697960583983,43.2733215619949,-145.800827718555,-130.010742599734,275.811570318291, , , , , , , , , , , , , , , , , , , , , , , , , , , , , , , , , , , , , , , , , , , , , , , , , , , , , , , , , , , , ,
65.9334594120264,271.294005565973,205.360546153947,-1415.66614752761,-2908.40823024066,-3015.30378094006,-1327.07377724102,401.541851419104,89.9808243367093,-168.613732488999,-69.7135433709596,238.327275859961, , , , , , , , , , , , , , , , , , , , , , , , , , , , , , , , , , , , , , , , , , , , , , , , , , , , , , , , , , , , ,
127.439188201301,260.811130615307,133.371942414007,-1575.36488754069,-3026.38226903194,-3159.59440170711,-1433.83803236752,400.597538449313,140.234815266701,-194.125159408304,-2.96637710635247,197.091536514657, , , , , , , , , , , , , , , , , , , , , , , , , , , , , , , , , , , , , , , , , , , , , , , , , , , , , , , , , , , , ,
195.937428884949,249.676921730689,53.7394928457412,-1737.15017615837,-3145.96100978649,-3300.62935749454,-1541.17049700939,399.97053897063,195.074142192917,-222.807175307819,71.0989680196047,151.708207288216, , , , , , , , , , , , , , , , , , , , , , , , , , , , , , , , , , , , , , , , , , , , , , , , , , , , , , , , , , , , ,
267.843291200456,237.897667050153,-29.9456241503025,-1905.09071538975,-3267.56303560246,-3442.35535244599,-1648.75535201992,399.733014341961,254.412154048061,-252.870479125305,148.89445767538,103.976021449926, , , , , , , , , , , , , , , , , , , , , , , , , , , , , , , , , , , , , , , , , , , , , , , , , , , , , , , , , , , , ,
345.0511578283,225.438616300779,-119.61254152752,-2078.03542190936,-3387.81814064083,-3581.70757075822,-1756.24545459057,399.924801941176,317.21625478663,-285.244887064539,232.331849677911,52.9130373866299, , , , , , , , , , , , , , , , , , , , , , , , , , , , , , , , , , , , , , , , , , , , , , , , , , , , , , , , , , , , ,
427.590637647562,212.229834358674,-215.360803288887,-2253.70964436126,-3510.1879448405,-3718.09089868495,-1863.2720505042,400.554250534511,384.750975161112,-319.910236003118,321.475720468225,-1.56548446510556, , , , , , , , , , , , , , , , , , , , , , , , , , , , , , , , , , , , , , , , , , , , , , , , , , , , , , , , , , , , ,
513.530823569759,198.173920491702,-315.356903078056,-2438.53595343265,-3630.53754615898,-3851.64833924823,-1969.46060671918,401.597929202763,454.680818622248,-355.852372030731,414.443863323908,-58.5914912931765, , , , , , , , , , , , , , , , , , , , , , , , , , , , , , , , , , , , , , , , , , , , , , , , , , , , , , , , , , , , ,
602.807236570074,183.154804021708,-419.652432548365,-2617.72938821381,-3750.00130467609,-3982.16831869058,-2074.45193881825,402.998535986225,527.742772273192,-392.981020295891,511.22983455922,-118.248814263328, , , , , , , , , , , , , , , , , , , , , , , , , , , , , , , , , , , , , , , , , , , , , , , , , , , , , , , , , , , , ,
694.077238699084,167.046928729576,-527.030309969507,-2796.51452104647,-3867.38670995239,-4109.15486459425,-2177.92730328217,404.660775185294,603.244508097886,-430.56208371433,610.553774334296,-179.991690619965, , , , , , , , , , , , , , , , , , , , , , , , , , , , , , , , , , , , , , , , , , , , , , , , , , , , , , , , , , , , ,
787.344526067263,149.724383985442,-637.62014208182,-2972.75808936224,-3982.43936440575,-4232.18135257784,-2279.63573942714,406.445477578459,680.393742459903,-468.534455026353,712.482334074543,-243.947879048188, , , , , , , , , , , , , , , , , , , , , , , , , , , , , , , , , , , , , , , , , , , , , , , , , , , , , , , , , , , , ,
882.259581663182,131.069816382841,-751.18976528034,-3145.69976338543,-4095.85591545537,-4350.93021897717,-2379.42173020681,408.162660116651,758.732286201146,-506.664699023011,816.724673471762,-310.059974448749, , , , , , , , , , , , , , , , , , , , , , , , , , , , , , , , , , , , , , , , , , , , , , , , , , , , , , , , , , , , ,
978.954057484033,110.983128674137,-867.970928809895,-3317.50747441627,-4204.36483837003,-4465.22898088919,-2477.25121121026,409.564463977274,837.825728929924,-544.968593079085,923.462493146965,-378.493900067878, , , , , , , , , , , , , , , , , , , , , , , , , , , , , , , , , , , , , , , , , , , , , , , , , , , , , , , , , , , , ,
1074.69872037921,89.3899563698093,-985.308764009401,-3475.72531799996,-4308.8842413499,-4575.08107462891,-2573.23404331471,410.338955110105,917.002640944911,-582.04433837451,1030.00374219431,-447.959403819795, , , , , , , , , , , , , , , , , , , , , , , , , , , , , , , , , , , , , , , , , , , , , , , , , , , , , , , , , , , , ,
1169.68334479159,66.249724365906,-1103.43362042569,-3625.17435986127,-4410.26030797901,-4680.69013955167,-2667.64120736389,410.105663539958,996.160040407071,-617.966534578749,1136.55848260864,-518.591948029889, , , , , , , , , , , , , , , , , , , , , , , , , , , , , , , , , , , , , , , , , , , , , , , , , , , , , , , , , , , , ,
1263.10297788649,41.5628493675619,-1221.54012851892,-3763.32988476111,-4506.23132696741,-4782.47627563723,-2761.66571354767,408.413548907502,1074.9540557028,-652.332913627025,1242.32155320271,-589.988639575681, , , , , , , , , , , , , , , , , , , , , , , , , , , , , , , , , , , , , , , , , , , , , , , , , , , , , , , , , , , , ,
1354.54780845006,15.3765165225547,-1339.1712919275,-3894.02833238908,-4599.89368119521,-4881.58115180904,-2855.59423101143,404.741891827819,1153.48566221553,-684.962162486306,1346.85955018878,-661.897387702473, , , , , , , , , , , , , , , , , , , , , , , , , , , , , , , , , , , , , , , , , , , , , , , , , , , , , , , , , , , , ,
1444.47097213292,-12.2115127412548,-1456.68248487417,-4008.21268638717,-4688.07842262785,-4979.68208879347,-2948.76405236545,398.50448913711,1230.84276744715,-716.129729695832,1450.57672850355,-734.446998807713, , , , , , , , , , , , , , , , , , , , , , , , , , , , , , , , , , , , , , , , , , , , , , , , , , , , , , , , , , , , ,
1531.25069779644,-41.0514555954513,-1572.30215339189,-4109.92911340336,-4773.28133747213,-5074.89058366733,-3043.74027211449,389.05748290821,1307.82890574169,-745.099621100494,1551.77642559417,-806.67680449367, , , , , , , , , , , , , , , , , , , , , , , , , , , , , , , , , , , , , , , , , , , , , , , , , , , , , , , , , , , , ,
1615.1832490351,-70.9426314620918,-1686.12588049719,-4199.42808752518,-4856.43160141171,-5171.25420440301,-3140.30893986866,375.711122326967,1383.96797355176,-772.120308786506,1650.65456476615,-878.534255979642, , , , , , , , , , , , , , , , , , , , , , , , , , , , , , , , , , , , , , , , , , , , , , , , , , , , , , , , , , , , ,
1695.38429039072,-101.637166398525,-1797.02145678924,-4277.37241202317,-4938.84631257019,-5268.4496528509,-3240.15270304412,357.745677006413,1459.25598266212,-796.873561996097,1746.20287358998,-949.329311593883, , , , , , , , , , , , , , , , , , , , , , , , , , , , , , , , , , , , , , , , , , , , , , , , , , , , , , , , , , , , ,
1773.17071698829,-132.846081961812,-1906.0167989501,-4344.79266265292,-5021.44265019951,-5367.92119616886,-3344.64110355911,334.431542668978,1533.50053663557,-820.16231751324,1839.5937579692,-1019.43144045596, , , , , , , , , , , , , , , , , , , , , , , , , , , , , , , , , , , , , , , , , , , , , , , , , , , , , , , , , , , , ,
1846.69448874284,-164.247370864598,-2010.94185960744,-4403.02079074378,-5105.77836896374,-5472.15329967043,-3454.72874952479,305.053265714532,1606.47953709598,-841.223558939123,1928.81817417514,-1087.59461523602, , , , , , , , , , , , , , , , , , , , , , , , , , , , , , , , , , , , , , , , , , , , , , , , , , , , , , , , , , , , ,
1917.25643350431,-195.49553699448,-2112.75197049879,-4453.60759599904,-5193.23882156892,-5581.1269551373,-3571.69698395547,268.93675847915,1679.17492015097,-860.880448254918,2015.00420200155,-1154.12375374664, , , , , , , , , , , , , , , , , , , , , , , , , , , , , , , , , , , , , , , , , , , , , , , , , , , , , , , , , , , , ,
1983.72877303928,-226.232100333269,-2209.96087337255,-4498.23078459213,-5285.24787618419,-5696.97795453948,-3696.22380210023,225.478474196244,1750.26739260926,-878.748336353006,2096.84482320592,-1218.09648685291, , , , , , , , , , , , , , , , , , , , , , , , , , , , , , , , , , , , , , , , , , , , , , , , , , , , , , , , , , , , ,
2047.03522433557,-256.096765526407,-2303.13198986198,-4538.60046793007,-5382.75505710646,-5820.46671872202,-3829.12478156048,174.174908499234,1820.45208781194,-895.469229404583,2175.08360709878,-1279.61437769419, , , , , , , , , , , , , , , , , , , , , , , , , , , , , , , , , , , , , , , , , , , , , , , , , , , , , , , , , , , , ,
2107.02497762972,-284.739289514291,-2391.76426714401,-4576.36834022241,-5486.80683066693,-5951.76648927598,-3970.70260480608,114.650569469854,1889.75943766353,-911.142844057715,2249.39462238687,-1338.25177832915, , , , , , , , , , , , , , , , , , , , , , , , , , , , , , , , , , , , , , , , , , , , , , , , , , , , , , , , , , , , ,
2162.87066679717,-314.046111053495,-2476.91677785066,-4613.04563576701,-5598.38476328339,-6091.62896977235,-4121.24955982049,46.6824789465529,1958.13733816745,-924.412277871837,2319.89372232392,-1395.48144445208, , , , , , , , , , , , , , , , , , , , , , , , , , , , , , , , , , , , , , , , , , , , , , , , , , , , , , , , , , , , ,
2216.88388099665,-340.549449508278,-2557.43333050493,-4649.93358034489,-5717.11375915516,-6239.68144244012,-4280.51426216897,-29.7807069969315,2025.81214433724,-938.167215744187,2387.15860575079,-1448.9913900066, , , , , , , , , , , , , , , , , , , , , , , , , , , , , , , , , , , , , , , , , , , , , , , , , , , , , , , , , , , , ,
2266.1020176745,-366.119105732377,-2632.22112340688,-4688.06866634801,-5843.24177277044,-6395.51557524277,-4447.82561235531,-114.606716229415,2092.11650694297,-949.991455971062,2449.16157054069,-1499.17011456963, , , , , , , , , , , , , , , , , , , , , , , , , , , , , , , , , , , , , , , , , , , , , , , , , , , , , , , , , , , , ,
2312.28431702735,-388.381259915573,-2700.66557694292,-4728.18390322085,-5977.81972315469,-6558.23524813633,-4622.41592006068,-207.47623552241,2157.45898581624,-961.951528555889,2506.47494698514,-1544.52341842925, , , , , , , , , , , , , , , , , , , , , , , , , , , , , , , , , , , , , , , , , , , , , , , , , , , , , , , , , , , , ,
2357.74178305245,-407.896567213813,-2765.63835026626,-4770.68631926191,-6116.84252846254,-6726.34315470707,-4802.91945120747,-307.888907040216,2221.4177672335,-974.922607919318,2561.69006665936,-1586.76745874004, , , , , , , , , , , , , , , , , , , , , , , , , , , , , , , , , , , , , , , , , , , , , , , , , , , , , , , , , , , , ,
2399.70208093107,-427.864219807935,-2827.566300739,-4815.65035853399,-6260.54991203328,-6898.20152177681,-4987.78615770269,-415.17886250383,2283.70447099602,-985.918930561566,2613.63419083503,-1627.71526027347, , , , , , , , , , , , , , , , , , , , , , , , , , , , , , , , , , , , , , , , , , , , , , , , , , , , , , , , , , , , ,
2438.36067195013,-442.178153831086,-2880.53882578121,-4862.8262890717,-6409.13939727212,-7071.57333187254,-5175.08821375985,-528.539034943478,2344.59147282036,-998.091259059521,2659.44974886567,-1661.35848980615, , , , , , , , , , , , , , , , , , , , , , , , , , , , , , , , , , , , , , , , , , , , , , , , , , , , , , , , , , , , ,
2475.34990026222,-458.552035690515,-2933.90193595273,-4911.66224822226,-6556.87825915509,-7244.18793193075,-5362.86084575793,-647.052609511254,2403.69828817686,-1008.39893228585,2704.62591810747,-1696.22698582162, , , , , , , , , , , , , , , , , , , , , , , , , , , , , , , , , , , , , , , , , , , , , , , , , , , , , , , , , , , , ,
2510.44652526598,-471.473493302613,-2981.92001856859,-4961.33815928088,-6703.39835874865,-7413.47755873631,-5548.99091762726,-769.729260912485,2461.24734973958,-1019.48651598168,2746.18327191728,-1726.6967559356, , , , , , , , , , , , , , , , , , , , , , , , , , , , , , , , , , , , , , , , , , , , , , , , , , , , , , , , , , , , ,
2544.13604943907,-483.379201009115,-3027.51525044818,-5010.80954676377,-6846.28928322668,-7576.86051607873,-5731.60047444183,-895.543420411773,2516.63214443599,-1030.37842421498,2785.82564994363,-1755.44722572865, , , , , , , , , , , , , , , , , , , , , , , , , , , , , , , , , , , , , , , , , , , , , , , , , , , , , , , , , , , , ,
2576.58981960969,-496.558610635588,-3073.14843024528,-5058.85921619257,-6983.08167022635,-7731.87967610091,-5907.62731219107,-1023.47177298836,2569.91046150522,-1040.01560448705,2824.86912492749,-1784.85352044043, , , , , , , , , , , , , , , , , , , , , , , , , , , , , , , , , , , , , , , , , , , , , , , , , , , , , , , , , , , , ,
2607.89709742213,-508.059623017418,-3115.95672043954,-5104.15466993295,-7111.2517012527,-7875.86992482929,-6075.83464805233,-1152.52745597318,2620.88894946611,-1049.91873720235,2861.92690893084,-1812.00817172848, , , , , , , , , , , , , , , , , , , , , , , , , , , , , , , , , , , , , , , , , , , , , , , , , , , , , , , , , , , , ,
2638.05156615462,-520.273407106275,-3158.3249732609,-5145.308856813,-7228.45427374733,-8006.55934825371,-6233.60317568259,-1281.78893190611,2669.35049283642,-1058.88907952417,2898.18826970776,-1839.29919018359, , , , , , , , , , , , , , , , , , , , , , , , , , , , , , , , , , , , , , , , , , , , , , , , , , , , , , , , , , , , ,
2666.94418170739,-534.589633081919,-3201.53381478931,-5180.94146215428,-7332.52548811225,-8121.85099320153,-6379.32344846315,-1410.42219127053,2715.05637253277,-1066.17727431274,2934.23899824835,-1868.06172393561, , , , , , , , , , , , , , , , , , , , , , , , , , , , , , , , , , , , , , , , , , , , , , , , , , , , , , , , , , , , ,
2694.36335832839,-551.863090972502,-3246.22644930089,-5209.73768604058,-7421.5895953753,-8220.18553651818,-6511.7196215071,-1537.69575024554,2757.75171729263,-1071.25013367794,2970.29490381464,-1899.04477013669, , , , , , , , , , , , , , , , , , , , , , , , , , , , , , , , , , , , , , , , , , , , , , , , , , , , , , , , , , , , ,
2720.00285470509,-572.766880511396,-3292.76973521649,-5230.5015708805,-7494.12916524129,-8300.29307655029,-6629.66526969025,-1662.98869457845,2797.17428936016,-1073.61798709685,3006.38629496079,-1932.76830786394, , , , , , , , , , , , , , , , , , , , , , , , , , , , , , , , , , , , , , , , , , , , , , , , , , , , , , , , , , , , ,
2743.47709463607,-597.848718310236,-3341.3258129463,-5242.20148470343,-7549.0372775878,-8361.33086643421,-6732.3659097103,-1785.79256753506,2833.06637375976,-1072.81418816291,3042.40145379118,-1969.58726562827, , , , , , , , , , , , , , , , , , , , , , , , , , , , , , , , , , , , , , , , , , , , , , , , , , , , , , , , , , , , ,
2764.34310569633,-627.497008056511,-3391.84011375284,-5244.00620646405,-7585.6493259692,-8402.89679055239,-6819.36732285684,-1905.70808044315,2865.18935959637,-1068.42304881991,3078.09160972459,-2009.66856090468, , , , , , , , , , , , , , , , , , , , , , , , , , , , , , , , , , , , , , , , , , , , , , , , , , , , , , , , , , , , ,
2782.12780188708,-661.915733396093,-3444.04353528317,-5235.31095023618,-7603.75358454064,-8425.02509175739,-6890.55159197769,-2022.43750518168,2893.34043841743,-1060.10603424549,3113.08566858512,-2052.97963433963, , , , , , , , , , , , , , , , , , , , , , , , , , , , , , , , , , , , , , , , , , , , , , , , , , , , , , , , , , , , ,
2796.35893013121,-701.109800279943,-3497.46873041115,-5215.75337186283,-7603.58106137741,-8428.16566310772,-6946.12175746038,-2135.77340112638,2917.37058531944,-1047.62456492564,3146.91383027118,-2099.28926534555, , , , , , , , , , , , , , , , , , , , , , , , , , , , , , , , , , , , , , , , , , , , , , , , , , , , , , , , , , , , ,
2806.59764463596,-744.8817466207,-3551.47939125665,-5185.21999446716,-7585.77621672784,-8413.14856284953,-6986.57600423951,-2245.58423398983,2937.20262174648,-1030.85794900763,3179.03851794631,-2148.18056893868, , , , , , , , , , , , , , , , , , , , , , , , , , , , , , , , , , , , , , , , , , , , , , , , , , , , , , , , , , , , ,
2812.47045724457,-792.840069932072,-3605.31052717664,-5143.84359637989,-7551.35088407535,-8381.13566164683,-7012.67239735209,-2351.79750543679,2952.84783138676,-1009.81519365625,3208.8904922106,-2199.07529855435, , , , , , , , , , , , , , , , , , , , , , , , , , , , , , , , , , , , , , , , , , , , , , , , , , , , , , , , , , , , ,
2813.44794155,-844.41876770109,-3657.86670925109,-5091.99209242907,-7501.6243095852,-8333.56161946205,-7025.38543377906,-2454.38112521401,2964.19137613341,-984.514586924457,3235.65732540055,-2251.14273847609, , , , , , , , , , , , , , , , , , , , , , , , , , , , , , , , , , , , , , , , , , , , , , , , , , , , , , , , , , , , ,
2809.8706510751,-898.906982980987,-3708.77763405608,-5030.2495087716,-7438.15274720051,-8272.0667608292,-7025.8560176735,-2553.32381241101,2971.91382136058,-955.481834047055,3259.32414256559,-2303.84230851853, , , , , , , , , , , , , , , , , , , , , , , , , , , , , , , , , , , , , , , , , , , , , , , , , , , , , , , , , , , , ,
2800.38061236919,-955.486899653133,-3755.86751202232,-4959.38990687148,-7362.65255242796,-8198.42484283395,-7015.33683866456,-2648.61531205408,2975.99718348348,-922.446856358027,3278.12406219575,-2355.67720583773, , , , , , , , , , , , , , , , , , , , , , , , , , , , , , , , , , , , , , , , , , , , , , , , , , , , , , , , , , , , ,
2785.20344324548,-1013.27733055792,-3798.48077380339,-4880.34549425475,-7276.9211123047,-8114.46910428448,-6995.13551420871,-2740.22724677177,2977.14983503915,-885.963056343781,3291.84210852443,-2405.87905218065, , , , , , , , , , , , , , , , , , , , , , , , , , , , , , , , , , , , , , , , , , , , , , , , , , , , , , , , , , , , ,
2767.66396730693,-1071.37993134129,-3839.04389864822,-4794.17050884902,-7182.76006753094,-8022.02023020078,-6966.55821099782,-2828.09555853668,2975.53848667293,-848.142017982819,3303.35393297757,-2455.21191499475, , , , , , , , , , , , , , , , , , , , , , , , , , , , , , , , , , , , , , , , , , , , , , , , , , , , , , , , , , , , ,
2746.11594572225,-1128.92477419208,-3875.04071991433,-4702.00265705517,-7081.905020391,-7922.81985445768,-6930.85669042087,-2912.1056856339,2971.98546197201,-808.595585765085,3310.57833281829,-2501.98274705321, , , , , , , , , , , , , , , , , , , , , , , , , , , , , , , , , , , , , , , , , , , , , , , , , , , , , , , , , , , , ,
2719.55503661708,-1185.11216514325,-3904.66720176033,-4605.02390554852,-6975.96528551033,-7818.47287774817,-6889.18166724755,-2992.08169229868,2967.52212818148,-767.221435736918,3312.11111918871,-2544.88968345179, , , , , , , , , , , , , , , , , , , , , , , , , , , , , , , , , , , , , , , , , , , , , , , , , , , , , , , , , , , , ,
2691.76425003266,-1239.24802170563,-3931.01227173829,-4504.42231489669,-6866.37630342939,-7710.40117548236,-6842.54489599079,-3067.78034541313,2962.40401316901,-726.258114163513,3311.38826088548,-2585.13014672196, , , , , , , , , , , , , , , , , , , , , , , , , , , , , , , , , , , , , , , , , , , , , , , , , , , , , , , , , , , , ,
2661.82222117331,-1290.7707274771,-3952.59294865041,-4401.35639574646,-6754.36620158226,-7599.81029160643,-6791.7915484035,-3138.89061405539,2957.99504366827,-685.525746848108,3307.20758491186,-2621.68183806375, , , , , , , , , , , , , , , , , , , , , , , , , , , , , , , , , , , , , , , , , , , , , , , , , , , , , , , , , , , , ,
2630.24069392284,-1339.26806259164,-3969.50875651448,-4296.92319377262,-6641.38090462703,-7487.66964846778,-6737.58346307545,-3205.03846936743,2954.81679600675,-645.4863156656,3299.87472521866,-2654.38840955306, , , , , , , , , , , , , , , , , , , , , , , , , , , , , , , , , , , , , , , , , , , , , , , , , , , , , , , , , , , , ,
2598.79608958121,-1384.48355108028,-3983.27964066149,-4192.13100852344,-6527.30231781961,-7374.70585858986,-6680.39302004941,-3265.79644028232,2953.55514318242,-607.156269250466,3291.03786512135,-2683.88159587088, , , , , , , , , , , , , , , , , , , , , , , , , , , , , , , , , , , , , , , , , , , , , , , , , , , , , , , , , , , , ,
2567.7748861069,-1426.31235771932,-3994.08724382622,-4087.87736062705,-6413.803439396,-7261.40802367651,-6620.50686363862,-3320.6972425398,2954.8956953184,-570.731264193791,3280.93106496656,-2710.19980077277, , , , , , , , , , , , , , , , , , , , , , , , , , , , , , , , , , , , , , , , , , , , , , , , , , , , , , , , , , , , ,
2537.94639910688,-1464.78766510559,-4002.73406421247,-3984.9325477146,-6299.8533072793,-7148.0434604401,-6558.03843845832,-3369.25089172714,2959.44222131306,-536.579367000642,3270.34023165967,-2733.76086465903, , , , , , , , , , , , , , , , , , , , , , , , , , , , , , , , , , , , , , , , , , , , , , , , , , , , , , , , , , , , ,
2509.9990408659,-1500.05920480719,-4010.05824567308,-3883.92886221953,-6186.28789052688,-7034.68205859329,-6492.94821900027,-3410.96491960927,2967.69566943756,-504.969918029355,3260.02864326949,-2755.05872524013, , , , , , , , , , , , , , , , , , , , , , , , , , , , , , , , , , , , , , , , , , , , , , , , , , , , , , , , , , , , ,
2484.51106578066,-1532.36624262288,-4016.87730840353,-3785.35529065631,-6073.1042622366,-6921.22740578586,-6425.07051464468,-3445.36750855515,2980.03593019854,-476.072411578892,3250.6941870921,-2774.6217755132, , , , , , , , , , , , , , , , , , , , , , , , , , , , , , , , , , , , , , , , , , , , , , , , , , , , , , , , , , , , ,
2461.92586512662,-1562.00775753571,-4023.93362266233,-3689.55729704163,-5960.90951849392,-6807.45284970405,-6354.1457466267,-3472.03341129741,2996.70641989047,-449.959053795457,3242.92974389447,-2792.97069009902, , , , , , , , , , , , , , , , , , , , , , , , , , , , , , , , , , , , , , , , , , , , , , , , , , , , , , , , , , , , ,
2442.53281924842,-1589.31272650631,-4031.84554575473,-3596.74113437927,-5848.02327553602,-6693.04072737269,-6279.85704114636,-3490.61233263079,3017.80166979816,-426.610046371057,3237.18918250158,-2810.57913613052, , , , , , , , , , , , , , , , , , , , , , , , , , , , , , , , , , , , , , , , , , , , , , , , , , , , , , , , , , , , ,
2426.45467256502,-1614.61326726984,-4041.06793983486,-3506.98204486147,-5734.90716185204,-6577.62300879069,-6201.86979969682,-3500.85899711124,3043.25836562435,-405.920702647589,3233.76130619994,-2827.84060355235, , , , , , , , , , , , , , , , , , , , , , , , , , , , , , , , , , , , , , , , , , , , , , , , , , , , , , , , , , , , ,
2413.64234610579,-1638.22288889265,-4051.86523499844,-3420.23571197016,-5621.60179169063,-6460.82158364715,-6119.87260379013,-3502.66350691214,3072.8505641801,-387.709728606568,3232.75379055211,-2845.04406194554, , , , , , , , , , , , , , , , , , , , , , , , , , , , , , , , , , , , , , , , , , , , , , , , , , , , , , , , , , , , ,
2403.87791187582,-1660.42132386399,-4064.29923573981,-3336.35240254579,-5507.13932060882,-6342.28643224294,-6033.61747126503,-3496.07997287345,3106.189982181,-371.728294005912,3234.08857380781,-2862.3602798019, , , , , , , , , , , , , , , , , , , , , , , , , , , , , , , , , , , , , , , , , , , , , , , , , , , , , , , , , , , , ,
2396.78606212976,-1681.44648711096,-4078.23254924071,-3255.09334292888,-5394.45166573127,-6221.73000206125,-5942.95718223841,-3481.35090148306,3142.7322369161,-357.669787509401,3237.50930568524,-2879.83951817583, , , , , , , , , , , , , , , , , , , , , , , , , , , , , , , , , , , , , , , , , , , , , , , , , , , , , , , , , , , , ,
2391.85387867828,-1701.49314928084,-4093.34702795911,-3176.14896589001,-5277.59449093903,-6098.95624380987,-5847.87717310628,-3458.92447988893,3181.78974613113,-345.180364698721,3242.6004533187,-2897.42008861997, , , , , , , , , , , , , , , , , , , , , , , , , , , , , , , , , , , , , , , , , , , , , , , , , , , , , , , , , , , , ,
2388.45815931684,-1720.717041986,-4109.17520130284,-3099.15871716312,-5160.46915666601,-5973.88295365859,-5748.51944065949,-3429.46179183808,3222.55172069547,-333.870558665419,3248.81668030984,-2914.94612164442, , , , , , , , , , , , , , , , , , , , , , , , , , , , , , , , , , , , , , , , , , , , , , , , , , , , , , , , , , , , ,
2385.89904790721,-1739.24247094126,-4125.14151884847,-3024.55152586899,-5040.59725928562,-5846.55638398244,-5645.19616296951,-3393.83130362989,3264.11131006132,-323.328288482979,3255.52028337784,-2932.19199489486, , , , , , , , , , , , , , , , , , , , , , , , , , , , , , , , , , , , , , , , , , , , , , , , , , , , , , , , , , , , ,
2383.43822691899,-1757.17123084907,-4140.60945776806,-2951.1904962537,-4919.17454263187,-5717.1575528842,-5538.39143427634,-3353.08886125776,3305.49942840772,-313.133498034956,3262.02384234352,-2948.89034430857, , , , , , , , , , , , , , , , , , , , , , , , , , , , , , , , , , , , , , , , , , , , , , , , , , , , , , , , , , , , ,
2380.33946082202,-1774.59073788424,-4154.93019870626,-2878.40563799632,-4796.28617512412,-5586.0002331943,-5428.7505568604,-3308.44292869753,3345.72406586403,-302.874361468889,3267.63482976414,-2964.76046829525, , , , , , , , , , , , , , , , , , , , , , , , , , , , , , , , , , , , , , , , , , , , , , , , , , , , , , , , , , , , ,
2375.90888696742,-1791.57974810561,-4167.48863507303,-2805.35610533312,-4672.10547835592,-5453.52111047592,-5317.05750725878,-3261.20659725899,3383.81306265416,-292.164569430907,3271.69876102023,-2979.53419158932, , , , , , , , , , , , , , , , , , , , , , , , , , , , , , , , , , , , , , , , , , , , , , , , , , , , , , , , , , , , ,
2369.53224489187,-1808.21067417231,-4177.74291906418,-2738.16738885949,-4546.89222476545,-5320.26297177508,-5204.20223255242,-3212.73955740195,3418.85760808624,-280.660785359778,3273.63758197803,-2992.97679661825, , , , , , , , , , , , , , , , , , , , , , , , , , , , , , , , , , , , , , , , , , , , , , , , , , , , , , , , , , , , ,
2360.70630927869,-1824.54821652829,-4185.25452580697,-2665.28036307075,-4420.98771532108,-5186.85199638801,-5091.14015428085,-3164.38434718228,3450.05335082598,-268.079046375201,3272.98041754283,-3004.90137116763, , , , , , , , , , , , , , , , , , , , , , , , , , , , , , , , , , , , , , , , , , , , , , , , , , , , , , , , , , , , ,
2349.0621765173,-1840.64468566014,-4189.70686217744,-2592.05908932877,-4294.80639584024,-5053.97031843219,-4978.84663867408,-3117.40162818179,3476.67227727793,-254.208745428583,3269.38451934737,-3015.17577391879, , , , , , , , , , , , , , , , , , , , , , , , , , , , , , , , , , , , , , , , , , , , , , , , , , , , , , , , , , , , ,
2334.37870802227,-1856.53290651832,-4190.91161454059,-2520.86673665118,-4168.82378743026,-4922.32513804089,-4868.26934986556,-3072.90911239309,3498.28420415293,-238.922900751979,3262.64516128143,-3023.72226052945, , , , , , , , , , , , , , , , , , , , , , , , , , , , , , , , , , , , , , , , , , , , , , , , , , , , , , , , , , , , ,
2316.58528200273,-1872.21786326233,-4188.80314526506,-2449.90838510439,-4043.56075427903,-4792.61589275294,-4760.28149047839,-3032.38030704573,3513.83721057284,-222.183709370201,3252.6942136339,-3030.5105042637, , , , , , , , , , , , , , , , , , , , , , , , , , , , , , , , , , , , , , , , , , , , , , , , , , , , , , , , , , , , ,
2295.75398107227,-1887.66823195198,-4183.42221302425,-2376.08485579565,-3919.56460204134,-4665.50136522338,-4655.63900426481,-2995.39460775786,3524.54716130378,-204.042874560144,3239.58809704826,-3035.54522248812, , , , , , , , , , , , , , , , , , , , , , , , , , , , , , , , , , , , , , , , , , , , , , , , , , , , , , , , , , , , ,
2272.08236154037,-1902.80874873778,-4174.89111027815,-2303.50828782633,-3797.38803470569,-4541.56893227428,-4554.94476331946,-2962.92157048197,3529.53027583203,-184.636806401297,3223.48673590926,-3038.84992950796, , , , , , , , , , , , , , , , , , , , , , , , , , , , , , , , , , , , , , , , , , , , , , , , , , , , , , , , , , , , ,
2245.86887952185,-1917.51410782403,-4163.38298734588,-2233.36744842757,-3677.56737412061,-4421.30821705576,-4458.62240007273,-2935.24522312816,3529.28486924164,-164.177385848913,3204.62593343387,-3040.44854758496, , , , , , , , , , , , , , , , , , , , , , , , , , , , , , , , , , , , , , , , , , , , , , , , , , , , , , , , , , , , ,
2217.48373361757,-1931.60485471612,-4149.08858833369,-2160.69324072516,-3560.60152381744,-4305.09104750436,-4366.90165052651,-2911.94471686051,3524.42321780231,-142.939439450722,3183.28616097563,-3040.34672152491, , , , , , , , , , , , , , , , , , , , , , , , , , , , , , , , , , , , , , , , , , , , , , , , , , , , , , , , , , , , ,
2187.3381942682,-1944.8455534796,-4132.1837477478,-2089.62614125556,-3446.93294759698,-4193.15888965511,-4279.81590287941,-2892.77937588328,3515.4705732052,-121.246320394296,3159.760971008,-3038.5146506137, , , , , , , , , , , , , , , , , , , , , , , , , , , , , , , , , , , , , , , , , , , , , , , , , , , , , , , , , , , , ,
