-157.431831941912,148.714818473954,306.146650415865,300.040472013993,572.960827734525,625.395061899348,473.402262894594,83.4996054256529,-58.0211085182289,4.35850673397835,-231.789241178887,227.43073444491,0,0,0,0,0,0,0,0,0,0,0,0,0,0,0,0,0,0,0,0,0,0,0,0,0,0,0,0,0,0,0,0,0,0,0,0,0,0,0,0,0,0,0,0,0,0,0,0,0,0,0,0,0,0,0,0,0,0,0,0,
-157.431831941912,148.714818473954,306.146650415865,300.040472013993,572.960827734525,625.395061899348,473.402262894594,83.4996054256529,-58.0211085182289,4.35850673397835,-231.789241178887,227.43073444491, , , , , , , , , , , , , , , , , , , , , , , , , , , , , , , , , , , , , , , , , , , , , , , , , , , , , , , , , , , , ,
-157.431831941912,148.714818473954,306.146650415865,300.040472013993,572.960827734525,625.395061899348,473.402262894594,83.4996054256529,-58.0211085182289,4.35850673397835,-231.789241178887,227.43073444491, , , , , , , , , , , , , , , , , , , , , , , , , , , , , , , , , , , , , , , , , , , , , , , , , , , , , , , , , , , , ,
-157.431831941912,148.714818473954,306.146650415865,300.040472013993,572.960827734525,625.395061899348,473.402262894594,83.4996054256529,-58.0211085182289,4.35850673397835,-231.789241178887,227.43073444491, , , , , , , , , , , , , , , , , , , , , , , , , , , , , , , , , , , , , , , , , , , , , , , , , , , , , , , , , , , , ,
-157.431831941912,148.714818473954,306.146650415865,300.040472013993,572.960827734525,625.395061899348,473.402262894594,83.4996054256529,-58.0211085182289,4.35850673397835,-231.789241178887,227.43073444491, , , , , , , , , , , , , , , , , , , , , , , , , , , , , , , , , , , , , , , , , , , , , , , , , , , , , , , , , , , , ,
-157.431831941912,148.714818473954,306.146650415865,331.717830423445,572.960827734525,625.395061899348,473.402262894594,83.4996054256529,-58.0211085182289,4.35850673397835,-231.789241178887,227.43073444491, , , , , , , , , , , , , , , , , , , , , , , , , , , , , , , , , , , , , , , , , , , , , , , , , , , , , , , , , , , , ,
-157.431831941912,148.714818473954,306.146650415865,384.821398060829,718.195460274511,694.383449421847,515.516592641921,83.4996054256529,-58.0211085182289,4.35850673397835,-231.789241178887,227.43073444491, , , , , , , , , , , , , , , , , , , , , , , , , , , , , , , , , , , , , , , , , , , , , , , , , , , , , , , , , , , , ,
-201.483718301597,148.714818473954,350.19853677555,407.512452358738,891.070396041979,958.584538936411,681.155486293433,83.4996054256529,-58.0211085182289,26.384449913821,-275.841127538573,249.456677624753, , , , , , , , , , , , , , , , , , , , , , , , , , , , , , , , , , , , , , , , , , , , , , , , , , , , , , , , , , , , ,
-240.46315483232,148.714818473954,389.177973306273,413.643291914606,987.360164645631,1140.75360061476,793.96416054499,83.4996054256529,-75.464958213497,45.8741681791827,-314.820564069296,268.946395890115, , , , , , , , , , , , , , , , , , , , , , , , , , , , , , , , , , , , , , , , , , , , , , , , , , , , , , , , , , , , ,
-268.029043839397,151.126591091796,419.155634931191,436.42678280175,1018.9210504395,1224.12515316739,846.13795034277,83.4996054256529,-99.4323180181117,58.4512263738002,-343.592339385293,285.141113011494, , , , , , , , , , , , , , , , , , , , , , , , , , , , , , , , , , , , , , , , , , , , , , , , , , , , , , , , , , , , ,
-277.311570660037,153.528923440594,430.84049410063,447.809918407605,1072.08655042493,1299.41008073967,895.83797662371,83.4996054256529,-116.213753190111,61.8913236097212,-354.076032380333,292.184708770613, , , , , , , , , , , , , , , , , , , , , , , , , , , , , , , , , , , , , , , , , , , , , , , , , , , , , , , , , , , , ,
-283.219492325677,156.092832184697,439.312324510372,431.831203248456,1137.1541120977,1387.96622758663,953.69951461587,83.4996054256529,-119.881079642274,63.5633300704897,-361.265908418024,297.702578347535, , , , , , , , , , , , , , , , , , , , , , , , , , , , , , , , , , , , , , , , , , , , , , , , , , , , , , , , , , , , ,
-293.761752507344,160.537740538335,454.299493045678,424.120200344802,1142.40811388135,1438.72095955905,988.655972443483,84.8018831217449,-130.388502667301,66.6120059845044,-374.030622776511,307.418616792008, , , , , , , , , , , , , , , , , , , , , , , , , , , , , , , , , , , , , , , , , , , , , , , , , , , , , , , , , , , , ,
-298.470798855168,162.689239258562,461.160038113729,433.485727472145,1088.73300526557,1457.12053388395,995.85571598944,86.4832618656166,-135.564535395048,67.8907797983029,-379.815418484448,311.924638686146, , , , , , , , , , , , , , , , , , , , , , , , , , , , , , , , , , , , , , , , , , , , , , , , , , , , , , , , , , , , ,
-298.30675025885,166.990778230953,465.297528489801,404.433825408457,1059.59764802178,1395.13898557075,953.880506330714,88.1827882357949,-126.602996626834,65.6579860139486,-381.802139374325,316.144153360378, , , , , , , , , , , , , , , , , , , , , , , , , , , , , , , , , , , , , , , , , , , , , , , , , , , , , , , , , , , , ,
-293.523305428927,168.779712637225,462.303018066151,371.57914126533,1060.37199053217,1313.42660575484,911.337272143389,89.9455885025612,-127.500319119406,62.3717963958509,-377.913161747538,315.541365351689, , , , , , , , , , , , , , , , , , , , , , , , , , , , , , , , , , , , , , , , , , , , , , , , , , , , , , , , , , , , ,
-278.546969100268,171.904661277037,450.451630377303,372.001665941579,1051.16795646868,1277.07171500006,896.553765808148,91.3328699560242,-126.086800403886,53.3211539116153,-364.499299738785,311.178145827171, , , , , , , , , , , , , , , , , , , , , , , , , , , , , , , , , , , , , , , , , , , , , , , , , , , , , , , , , , , , ,
-263.366918211156,173.743781466565,437.110699677719,355.823589613539,978.029887035483,1236.27412066634,875.836425310604,93.5471382416932,-121.235262640076,44.8115683722953,-350.238808944437,305.427240572143, , , , , , , , , , , , , , , , , , , , , , , , , , , , , , , , , , , , , , , , , , , , , , , , , , , , , , , , , , , , ,
-255.267112994467,174.609947636476,429.877060630942,319.634169811843,893.834089188826,1190.06087132463,852.177718919762,94.1760721441736,-108.502261142406,40.3285826789953,-342.572086812704,302.24350413371, , , , , , , , , , , , , , , , , , , , , , , , , , , , , , , , , , , , , , , , , , , , , , , , , , , , , , , , , , , , ,
-246.570405435599,177.083720728305,423.654126163903,300.040472013993,867.919585802238,1142.69459163553,828.166573954772,94.428957125192,-104.355952530562,34.7433423536463,-335.11226579975,300.368923446105, , , , , , , , , , , , , , , , , , , , , , , , , , , , , , , , , , , , , , , , , , , , , , , , , , , , , , , , , , , , ,
-237.92638305112,177.022430992967,414.948814044085,300.040472013993,851.490302004465,1097.70212619989,797.64843177116,93.950007787891,-92.1914223907043,30.4519760290767,-326.437598547602,295.985622518527, , , , , , , , , , , , , , , , , , , , , , , , , , , , , , , , , , , , , , , , , , , , , , , , , , , , , , , , , , , , ,
-229.869452586492,178.236478095992,408.105930682483,300.040472013993,835.311701951991,1057.8140556457,744.813896598998,93.363722523893,-79.9697539793814,25.8164872452498,-318.987691634487,293.171204389238, , , , , , , , , , , , , , , , , , , , , , , , , , , , , , , , , , , , , , , , , , , , , , , , , , , , , , , , , , , , ,
-222.812527190954,176.976865981979,399.789393172931,300.040472013993,796.782809474149,997.235413274776,704.039999115945,91.5178632072285,-68.9102443610457,22.9178306044873,-311.300960181942,288.383129577456, , , , , , , , , , , , , , , , , , , , , , , , , , , , , , , , , , , , , , , , , , , , , , , , , , , , , , , , , , , , ,
-217.047188434486,176.63296365312,393.680152087605,300.040472013993,729.358084181569,930.415121882803,692.758747686563,89.0031125293543,-59.0825078113624,20.207112390683,-305.363670261045,285.156557870363, , , , , , , , , , , , , , , , , , , , , , , , , , , , , , , , , , , , , , , , , , , , , , , , , , , , , , , , , , , , ,
-212.749271991755,173.926699630009,386.675971621762,300.040472013993,689.714376561238,898.176190134138,685.656359685256,85.6102362899093,-58.0211085182289,19.4112861808726,-299.712621806758,280.301335625886, , , , , , , , , , , , , , , , , , , , , , , , , , , , , , , , , , , , , , , , , , , , , , , , , , , , , , , , , , , , ,
-209.695197395658,171.262953294295,380.958150689952,300.040472013993,684.720594484774,886.449898897915,682.783117065474,83.4996054256529,-58.0211085182289,19.2161220506811,-295.326674042804,276.110551992124, , , , , , , , , , , , , , , , , , , , , , , , , , , , , , , , , , , , , , , , , , , , , , , , , , , , , , , , , , , , ,
-201.561915778587,167.437145317809,368.999061096394,300.040472013993,681.289721591274,881.536259696676,683.903234153921,83.4996054256529,-58.0211085182289,17.0623852303889,-285.28048843749,268.218103207102, , , , , , , , , , , , , , , , , , , , , , , , , , , , , , , , , , , , , , , , , , , , , , , , , , , , , , , , , , , , ,
-194.597181792837,162.237546395576,356.834728188411,300.040472013993,679.425259722742,882.843449145295,688.557805883754,83.4996054256529,-58.0211085182289,16.17981769863,-275.715954990623,259.536137291994, , , , , , , , , , , , , , , , , , , , , , , , , , , , , , , , , , , , , , , , , , , , , , , , , , , , , , , , , , , , ,
-194.888476157212,157.252298485541,352.140774642752,300.040472013993,666.181914780842,889.50126438401,671.003247781439,83.4996054256529,-53.2647126083831,18.8180888358353,-273.514625399981,254.696536564147, , , , , , , , , , , , , , , , , , , , , , , , , , , , , , , , , , , , , , , , , , , , , , , , , , , , , , , , , , , , ,
-196.158281331414,150.314047519928,346.472328851341,300.040472013993,613.223276449902,900.455190547972,637.064591421236,83.4996054256529,-49.0839755951721,22.9221169057425,-271.315305091376,248.393188185635, , , , , , , , , , , , , , , , , , , , , , , , , , , , , , , , , , , , , , , , , , , , , , , , , , , , , , , , , , , , ,
-198.238320012355,148.714818473954,346.953138486308,300.040472013993,572.960827734525,914.55440337204,627.608568907153,83.4996054256529,-44.076835485852,24.7617507691999,-272.59572924933,247.833978480132, , , , , , , , , , , , , , , , , , , , , , , , , , , , , , , , , , , , , , , , , , , , , , , , , , , , , , , , , , , , ,
-197.188411770167,148.714818473954,345.90323024412,300.040472013993,572.960827734525,888.017316391758,635.528894905972,83.4996054256529,-37.8745621416621,24.2367966481062,-271.545821007143,247.309024359038, , , , , , , , , , , , , , , , , , , , , , , , , , , , , , , , , , , , , , , , , , , , , , , , , , , , , , , , , , , , ,
-191.083497677136,148.714818473954,339.798316151089,300.040472013993,572.960827734525,844.08228454247,643.895277326829,83.4996054256529,-33.0085690229001,21.1843396015906,-265.440906914112,244.256567312523, , , , , , , , , , , , , , , , , , , , , , , , , , , , , , , , , , , , , , , , , , , , , , , , , , , , , , , , , , , , ,
-184.648460885587,148.714818473954,333.36327935954,300.040472013993,572.960827734525,840.343487768048,652.237511275288,83.4996054256529,-29.7427193540526,17.9668212058161,-259.005870122563,241.039048916748, , , , , , , , , , , , , , , , , , , , , , , , , , , , , , , , , , , , , , , , , , , , , , , , , , , , , , , , , , , , ,
-181.513545042384,148.714818473954,330.228363516337,300.040472013993,572.960827734525,852.023701636101,660.14864405519,83.4996054256529,-25.469508274572,16.3993632842148,-255.87095427936,239.471590995147, , , , , , , , , , , , , , , , , , , , , , , , , , , , , , , , , , , , , , , , , , , , , , , , , , , , , , , , , , , , ,
-183.321879006437,148.714818473954,332.03669748039,300.040472013993,572.960827734525,862.91071506695,626.177393365036,83.4996054256529,-19.7960365386828,17.3035302662408,-257.679288243412,240.375757977173, , , , , , , , , , , , , , , , , , , , , , , , , , , , , , , , , , , , , , , , , , , , , , , , , , , , , , , , , , , , ,
-185.105355779376,148.714818473954,333.820174253329,300.040472013993,572.960827734525,821.84257667433,580.358768021811,83.4996054256529,-14.2967820169754,18.1952686527105,-259.462765016352,241.267496363642, , , , , , , , , , , , , , , , , , , , , , , , , , , , , , , , , , , , , , , , , , , , , , , , , , , , , , , , , , , , ,
-184.762421406079,148.714818473954,333.477239880032,300.040472013993,572.960827734525,763.616891756852,573.723964777925,83.4996054256529,-10.9071897984174,18.0238014660621,-259.119830643055,241.096029176994, , , , , , , , , , , , , , , , , , , , , , , , , , , , , , , , , , , , , , , , , , , , , , , , , , , , , , , , , , , , ,
-177.553146193643,148.714818473954,326.267964667596,300.040472013993,572.960827734525,753.429994804423,576.228124509418,83.4996054256529,-7.5130786763708,14.419163859844,-251.910555430619,237.491391570776, , , , , , , , , , , , , , , , , , , , , , , , , , , , , , , , , , , , , , , , , , , , , , , , , , , , , , , , , , , , ,
-178.509949647479,148.714818473954,327.224768121432,300.040472013993,572.960827734525,756.515013836686,578.085331887614,83.4996054256529,-4.16020611651986,14.897565586762,-252.867358884455,237.969793297694, , , , , , , , , , , , , , , , , , , , , , , , , , , , , , , , , , , , , , , , , , , , , , , , , , , , , , , , , , , , ,
-179.319143872178,148.714818473954,328.033962346131,300.040472013993,572.960827734525,752.095992710296,579.290813641323,83.4996054256529,-0.90358180700882,15.3021626991116,-253.676553109154,238.374390410044, , , , , , , , , , , , , , , , , , , , , , , , , , , , , , , , , , , , , , , , , , , , , , , , , , , , , , , , , , , , ,
-179.968266415217,148.714818473954,328.68308488917,300.040472013993,572.960827734525,692.37833809778,559.406136437465,83.4996054256529,2.1975057839398,15.626723970631,-254.325675652193,238.698951681563, , , , , , , , , , , , , , , , , , , , , , , , , , , , , , , , , , , , , , , , , , , , , , , , , , , , , , , , , , , , ,
-180.454888809232,148.714818473954,329.169707283185,300.040472013993,572.960827734525,692.654612214958,506.241227937289,83.4996054256529,5.08416486577489,15.8700351676383,-254.812298046207,238.94226287857, , , , , , , , , , , , , , , , , , , , , , , , , , , , , , , , , , , , , , , , , , , , , , , , , , , , , , , , , , , , ,
-180.785182134705,148.714818473954,329.500000608658,300.040472013993,572.960827734525,692.463706303321,473.402262894594,83.4996054256529,7.70203794481843,16.0351818303748,-255.14259137168,239.107409541307, , , , , , , , , , , , , , , , , , , , , , , , , , , , , , , , , , , , , , , , , , , , , , , , , , , , , , , , , , , , ,
-173.330015280437,148.714818473954,322.04483375439,300.040472013993,572.960827734525,691.856056675733,473.402262894594,83.4996054256529,10.0047025370274,12.307598403241,-247.687424517413,235.379826114173, , , , , , , , , , , , , , , , , , , , , , , , , , , , , , , , , , , , , , , , , , , , , , , , , , , , , , , , , , , , ,
-169.231683563827,148.714818473954,317.94650203778,300.040472013993,572.960827734525,690.893745394689,473.402262894594,83.4996054256529,11.9561860061136,10.2584325449362,-243.589092800803,233.330660255868, , , , , , , , , , , , , , , , , , , , , , , , , , , , , , , , , , , , , , , , , , , , , , , , , , , , , , , , , , , , ,
-169.232920085668,148.714818473954,317.947738559621,300.040472013993,572.960827734525,689.645872964966,473.402262894594,83.4996054256529,13.5325014561544,10.2590508058564,-243.590329322643,233.331278516788, , , , , , , , , , , , , , , , , , , , , , , , , , , , , , , , , , , , , , , , , , , , , , , , , , , , , , , , , , , , ,
-169.185915877061,148.714818473954,317.900734351014,300.040472013993,572.960827734525,663.322600788103,473.402262894594,83.4996054256529,14.7221697906214,10.2355487015531,-243.543325114037,233.307776412485, , , , , , , , , , , , , , , , , , , , , , , , , , , , , , , , , , , , , , , , , , , , , , , , , , , , , , , , , , , , ,
-169.100157942602,148.714818473954,317.814976416555,300.040472013993,572.960827734525,625.395061899348,473.402262894594,83.4996054256529,15.5257528113389,10.1926697343235,-243.457567179578,233.264897445255, , , , , , , , , , , , , , , , , , , , , , , , , , , , , , , , , , , , , , , , , , , , , , , , , , , , , , , , , , , , ,
-168.983693361831,148.714818473954,317.698511835784,300.040472013993,572.960827734525,625.395061899348,473.402262894594,83.4996054256529,15.9544860314359,10.1344374439382,-243.341102598807,233.20666515487, , , , , , , , , , , , , , , , , , , , , , , , , , , , , , , , , , , , , , , , , , , , , , , , , , , , , , , , , , , , ,
-168.541513763313,148.714818473954,317.256332237266,300.040472013993,572.960827734525,625.395061899348,473.402262894594,83.4996054256529,16.0281686843457,9.91334764467894,-242.898923000289,232.985575355611, , , , , , , , , , , , , , , , , , , , , , , , , , , , , , , , , , , , , , , , , , , , , , , , , , , , , , , , , , , , ,
-157.431831941912,148.714818473954,306.146650415865,300.040472013993,572.960827734525,625.395061899348,473.402262894594,83.4996054256529,15.7725354138,4.35850673397835,-231.789241178887,227.43073444491, , , , , , , , , , , , , , , , , , , , , , , , , , , , , , , , , , , , , , , , , , , , , , , , , , , , , , , , , , , , ,
-157.431831941912,148.714818473954,306.146650415865,300.040472013993,572.960827734525,625.395061899348,473.402262894594,83.4996054256529,15.2163846783156,4.35850673397835,-231.789241178887,227.43073444491, , , , , , , , , , , , , , , , , , , , , , , , , , , , , , , , , , , , , , , , , , , , , , , , , , , , , , , , , , , , ,
-157.431831941912,148.714818473954,306.146650415865,300.040472013993,572.960827734525,625.395061899348,473.402262894594,83.4996054256529,14.3887574821424,4.35850673397835,-231.789241178887,227.43073444491, , , , , , , , , , , , , , , , , , , , , , , , , , , , , , , , , , , , , , , , , , , , , , , , , , , , , , , , , , , , ,
-157.431831941912,148.714818473954,306.146650415865,300.040472013993,572.960827734525,625.395061899348,473.402262894594,83.4996054256529,13.3164396077497,4.35850673397835,-231.789241178887,227.43073444491, , , , , , , , , , , , , , , , , , , , , , , , , , , , , , , , , , , , , , , , , , , , , , , , , , , , , , , , , , , , ,
-157.431831941912,148.714818473954,306.146650415865,300.040472013993,572.960827734525,625.395061899348,473.402262894594,83.4996054256529,12.0220083062525,4.35850673397835,-231.789241178887,227.43073444491, , , , , , , , , , , , , , , , , , , , , , , , , , , , , , , , , , , , , , , , , , , , , , , , , , , , , , , , , , , , ,
-157.431831941912,148.714818473954,306.146650415865,300.040472013993,572.960827734525,625.395061899348,473.402262894594,83.4996054256529,10.5225773865835,4.35850673397835,-231.789241178887,227.43073444491, , , , , , , , , , , , , , , , , , , , , , , , , , , , , , , , , , , , , , , , , , , , , , , , , , , , , , , , , , , , ,
-157.431831941912,148.714818473954,306.146650415865,300.040472013993,572.960827734525,625.395061899348,473.402262894594,83.4996054256529,8.82932658511892,4.35850673397835,-231.789241178887,227.43073444491, , , , , , , , , , , , , , , , , , , , , , , , , , , , , , , , , , , , , , , , , , , , , , , , , , , , , , , , , , , , ,
-157.431831941912,148.714818473954,306.146650415865,300.040472013993,572.960827734525,625.395061899348,473.402262894594,83.4996054256529,6.94783424236347,4.35850673397835,-231.789241178887,227.43073444491, , , , , , , , , , , , , , , , , , , , , , , , , , , , , , , , , , , , , , , , , , , , , , , , , , , , , , , , , , , , ,
-157.431831941912,148.714818473954,306.146650415865,300.040472013993,572.960827734525,625.395061899348,473.402262894594,83.4996054256529,4.92788450013559,4.35850673397835,-231.789241178887,227.43073444491, , , , , , , , , , , , , , , , , , , , , , , , , , , , , , , , , , , , , , , , , , , , , , , , , , , , , , , , , , , , ,
-157.431831941912,148.714818473954,306.146650415865,300.040472013993,572.960827734525,625.395061899348,473.402262894594,83.4996054256529,2.81606973164027,4.35850673397835,-231.789241178887,227.43073444491, , , , , , , , , , , , , , , , , , , , , , , , , , , , , , , , , , , , , , , , , , , , , , , , , , , , , , , , , , , , ,
-157.431831941912,148.714818473954,306.146650415865,300.040472013993,572.960827734525,625.395061899348,473.402262894594,83.4996054256529,0.436752552853946,4.35850673397835,-231.789241178887,227.43073444491, , , , , , , , , , , , , , , , , , , , , , , , , , , , , , , , , , , , , , , , , , , , , , , , , , , , , , , , , , , , ,
-157.431831941912,148.714818473954,306.146650415865,300.040472013993,572.960827734525,625.395061899348,473.402262894594,83.4996054256529,-1.60738210269481,4.35850673397835,-231.789241178887,227.43073444491, , , , , , , , , , , , , , , , , , , , , , , , , , , , , , , , , , , , , , , , , , , , , , , , , , , , , , , , , , , , ,
-157.431831941912,148.714818473954,306.146650415865,300.040472013993,572.960827734525,625.395061899348,473.402262894594,83.4996054256529,-4.42117262012583,4.35850673397835,-231.789241178887,227.43073444491, , , , , , , , , , , , , , , , , , , , , , , , , , , , , , , , , , , , , , , , , , , , , , , , , , , , , , , , , , , , ,
-157.431831941912,148.714818473954,306.146650415865,300.040472013993,572.960827734525,625.395061899348,473.402262894594,83.4996054256529,-7.35765325735905,4.35850673397835,-231.789241178887,227.43073444491, , , , , , , , , , , , , , , , , , , , , , , , , , , , , , , , , , , , , , , , , , , , , , , , , , , , , , , , , , , , ,
-157.431831941912,148.714818473954,306.146650415865,300.040472013993,572.960827734525,625.395061899348,473.402262894594,83.4996054256529,-9.81455940960221,4.35850673397835,-231.789241178887,227.43073444491, , , , , , , , , , , , , , , , , , , , , , , , , , , , , , , , , , , , , , , , , , , , , , , , , , , , , , , , , , , , ,
-157.431831941912,148.714818473954,306.146650415865,300.040472013993,572.960827734525,625.395061899348,473.402262894594,83.4996054256529,-13.0704175507466,4.35850673397835,-231.789241178887,227.43073444491, , , , , , , , , , , , , , , , , , , , , , , , , , , , , , , , , , , , , , , , , , , , , , , , , , , , , , , , , , , , ,
-157.431831941912,148.714818473954,306.146650415865,300.040472013993,572.960827734525,625.395061899348,473.402262894594,83.4996054256529,-16.3929544640412,4.35850673397835,-231.789241178887,227.43073444491, , , , , , , , , , , , , , , , , , , , , , , , , , , , , , , , , , , , , , , , , , , , , , , , , , , , , , , , , , , , ,
-157.431831941912,148.714818473954,306.146650415865,300.040472013993,572.960827734525,625.395061899348,473.402262894594,83.4996054256529,-19.7560028369752,4.35850673397835,-231.789241178887,227.43073444491, , , , , , , , , , , , , , , , , , , , , , , , , , , , , , , , , , , , , , , , , , , , , , , , , , , , , , , , , , , , ,
-157.431831941912,148.714818473954,306.146650415865,300.040472013993,572.960827734525,625.395061899348,473.402262894594,83.4996054256529,-23.2840291159462,4.35850673397835,-231.789241178887,227.43073444491, , , , , , , , , , , , , , , , , , , , , , , , , , , , , , , , , , , , , , , , , , , , , , , , , , , , , , , , , , , , ,
-157.431831941912,148.714818473954,306.146650415865,300.040472013993,572.960827734525,625.395061899348,473.402262894594,83.4996054256529,-26.813362246793,4.35850673397835,-231.789241178887,227.43073444491, , , , , , , , , , , , , , , , , , , , , , , , , , , , , , , , , , , , , , , , , , , , , , , , , , , , , , , , , , , , ,
-157.431831941912,148.714818473954,306.146650415865,300.040472013993,572.960827734525,625.395061899348,473.402262894594,83.4996054256529,-30.284737662272,4.35850673397835,-231.789241178887,227.43073444491, , , , , , , , , , , , , , , , , , , , , , , , , , , , , , , , , , , , , , , , , , , , , , , , , , , , , , , , , , , , ,
-157.431831941912,148.714818473954,306.146650415865,300.040472013993,572.960827734525,625.395061899348,473.402262894594,83.4996054256529,-33.5499609046551,4.35850673397835,-231.789241178887,227.43073444491, , , , , , , , , , , , , , , , , , , , , , , , , , , , , , , , , , , , , , , , , , , , , , , , , , , , , , , , , , , , ,
-157.431831941912,148.714818473954,306.146650415865,300.040472013993,572.960827734525,625.395061899348,473.402262894594,83.4996054256529,-36.5679058215854,4.35850673397835,-231.789241178887,227.43073444491, , , , , , , , , , , , , , , , , , , , , , , , , , , , , , , , , , , , , , , , , , , , , , , , , , , , , , , , , , , , ,
-157.431831941912,148.714818473954,306.146650415865,300.040472013993,572.960827734525,625.395061899348,473.402262894594,83.4996054256529,-39.4772848128718,4.35850673397835,-231.789241178887,227.43073444491, , , , , , , , , , , , , , , , , , , , , , , , , , , , , , , , , , , , , , , , , , , , , , , , , , , , , , , , , , , , ,
-157.431831941912,148.714818473954,306.146650415865,300.040472013993,572.960827734525,625.395061899348,473.402262894594,83.4996054256529,-42.0969229591275,4.35850673397835,-231.789241178887,227.43073444491, , , , , , , , , , , , , , , , , , , , , , , , , , , , , , , , , , , , , , , , , , , , , , , , , , , , , , , , , , , , ,
-157.431831941912,148.714818473954,306.146650415865,300.040472013993,572.960827734525,625.395061899348,473.402262894594,83.4996054256529,-44.8745439291288,4.35850673397835,-231.789241178887,227.43073444491, , , , , , , , , , , , , , , , , , , , , , , , , , , , , , , , , , , , , , , , , , , , , , , , , , , , , , , , , , , , ,
-157.431831941912,148.714818473954,306.146650415865,300.040472013993,572.960827734525,625.395061899348,473.402262894594,83.4996054256529,-47.4202289529457,4.35850673397835,-231.789241178887,227.43073444491, , , , , , , , , , , , , , , , , , , , , , , , , , , , , , , , , , , , , , , , , , , , , , , , , , , , , , , , , , , , ,
-157.431831941912,148.714818473954,306.146650415865,300.040472013993,572.960827734525,625.395061899348,473.402262894594,83.4996054256529,-49.8938071034706,4.35850673397835,-231.789241178887,227.43073444491, , , , , , , , , , , , , , , , , , , , , , , , , , , , , , , , , , , , , , , , , , , , , , , , , , , , , , , , , , , , ,
-157.431831941912,148.714818473954,306.146650415865,300.040472013993,572.960827734525,625.395061899348,473.402262894594,83.4996054256529,-51.9633319752784,4.35850673397835,-231.789241178887,227.43073444491, , , , , , , , , , , , , , , , , , , , , , , , , , , , , , , , , , , , , , , , , , , , , , , , , , , , , , , , , , , , ,
-157.431831941912,148.714818473954,306.146650415865,300.040472013993,572.960827734525,625.395061899348,473.402262894594,83.4996054256529,-53.9235897712319,4.35850673397835,-231.789241178887,227.43073444491, , , , , , , , , , , , , , , , , , , , , , , , , , , , , , , , , , , , , , , , , , , , , , , , , , , , , , , , , , , , ,
-157.431831941912,148.714818473954,306.146650415865,300.040472013993,572.960827734525,625.395061899348,473.402262894594,83.4996054256529,-55.5565184445391,4.35850673397835,-231.789241178887,227.43073444491, , , , , , , , , , , , , , , , , , , , , , , , , , , , , , , , , , , , , , , , , , , , , , , , , , , , , , , , , , , , ,
-157.431831941912,148.714818473954,306.146650415865,300.040472013993,572.960827734525,625.395061899348,473.402262894594,83.4996054256529,-56.9666333338183,4.35850673397835,-231.789241178887,227.43073444491, , , , , , , , , , , , , , , , , , , , , , , , , , , , , , , , , , , , , , , , , , , , , , , , , , , , , , , , , , , , ,
-157.431831941912,148.714818473954,306.146650415865,300.040472013993,572.960827734525,625.395061899348,473.402262894594,83.4996054256529,-58.0211085182289,4.35850673397835,-231.789241178887,227.43073444491, , , , , , , , , , , , , , , , , , , , , , , , , , , , , , , , , , , , , , , , , , , , , , , , , , , , , , , , , , , , ,
-157.431831941912,148.714818473954,306.146650415865,300.040472013993,572.960827734525,625.395061899348,473.402262894594,83.4996054256529,-58.0211085182289,4.35850673397835,-231.789241178887,227.43073444491, , , , , , , , , , , , , , , , , , , , , , , , , , , , , , , , , , , , , , , , , , , , , , , , , , , , , , , , , , , , ,
-157.431831941912,148.714818473954,306.146650415865,300.040472013993,572.960827734525,625.395061899348,473.402262894594,83.4996054256529,-58.0211085182289,4.35850673397835,-231.789241178887,227.43073444491, , , , , , , , , , , , , , , , , , , , , , , , , , , , , , , , , , , , , , , , , , , , , , , , , , , , , , , , , , , , ,
-157.431831941912,148.714818473954,306.146650415865,300.040472013993,572.960827734525,625.395061899348,473.402262894594,83.4996054256529,-58.0211085182289,4.35850673397835,-231.789241178887,227.43073444491, , , , , , , , , , , , , , , , , , , , , , , , , , , , , , , , , , , , , , , , , , , , , , , , , , , , , , , , , , , , ,
-157.431831941912,148.714818473954,306.146650415865,300.040472013993,572.960827734525,625.395061899348,473.402262894594,83.4996054256529,-58.8545802085656,4.35850673397835,-231.789241178887,227.43073444491, , , , , , , , , , , , , , , , , , , , , , , , , , , , , , , , , , , , , , , , , , , , , , , , , , , , , , , , , , , , ,
-157.431831941912,148.714818473954,306.146650415865,300.040472013993,572.960827734525,625.395061899348,473.402262894594,83.4996054256529,-59.4488940132222,4.35850673397835,-231.789241178887,227.43073444491, , , , , , , , , , , , , , , , , , , , , , , , , , , , , , , , , , , , , , , , , , , , , , , , , , , , , , , , , , , , ,
-157.431831941912,148.714818473954,306.146650415865,300.040472013993,572.960827734525,625.395061899348,473.402262894594,83.4996054256529,-59.7944529424,4.35850673397835,-231.789241178887,227.43073444491, , , , , , , , , , , , , , , , , , , , , , , , , , , , , , , , , , , , , , , , , , , , , , , , , , , , , , , , , , , , ,
-157.431831941912,148.714818473954,306.146650415865,300.040472013993,572.960827734525,625.395061899348,473.402262894594,83.4996054256529,-59.8868980372124,4.35850673397835,-231.789241178887,227.43073444491, , , , , , , , , , , , , , , , , , , , , , , , , , , , , , , , , , , , , , , , , , , , , , , , , , , , , , , , , , , , ,
-157.431831941912,148.714818473954,306.146650415865,300.040472013993,572.960827734525,625.395061899348,473.402262894594,83.4996054256529,-59.729117277571,4.35850673397835,-231.789241178887,227.43073444491, , , , , , , , , , , , , , , , , , , , , , , , , , , , , , , , , , , , , , , , , , , , , , , , , , , , , , , , , , , , ,
-157.431831941912,148.714818473954,306.146650415865,300.040472013993,572.960827734525,625.395061899348,473.402262894594,83.4996054256529,-59.3328443450504,4.35850673397835,-231.789241178887,227.43073444491, , , , , , , , , , , , , , , , , , , , , , , , , , , , , , , , , , , , , , , , , , , , , , , , , , , , , , , , , , , , ,
-157.431831941912,148.714818473954,306.146650415865,300.040472013993,572.960827734525,625.395061899348,473.402262894594,83.4996054256529,-58.7196250364783,4.35850673397835,-231.789241178887,227.43073444491, , , , , , , , , , , , , , , , , , , , , , , , , , , , , , , , , , , , , , , , , , , , , , , , , , , , , , , , , , , , ,
-157.431831941912,148.714818473954,306.146650415865,300.040472013993,572.960827734525,625.395061899348,473.402262894594,83.4996054256529,-58.0211085182289,4.35850673397835,-231.789241178887,227.43073444491, , , , , , , , , , , , , , , , , , , , , , , , , , , , , , , , , , , , , , , , , , , , , , , , , , , , , , , , , , , , ,
-157.431831941912,148.714818473954,306.146650415865,300.040472013993,572.960827734525,625.395061899348,473.402262894594,83.4996054256529,-58.0211085182289,4.35850673397835,-231.789241178887,227.43073444491, , , , , , , , , , , , , , , , , , , , , , , , , , , , , , , , , , , , , , , , , , , , , , , , , , , , , , , , , , , , ,
-157.431831941912,148.714818473954,306.146650415865,300.040472013993,572.960827734525,625.395061899348,473.402262894594,83.4996054256529,-57.5047335543878,4.35850673397835,-231.789241178887,227.43073444491, , , , , , , , , , , , , , , , , , , , , , , , , , , , , , , , , , , , , , , , , , , , , , , , , , , , , , , , , , , , ,
-157.431831941912,148.714818473954,306.146650415865,300.040472013993,572.960827734525,621.289828909468,473.402262894594,82.8288153952557,-56.4227213453207,4.35850673397835,-231.789241178887,227.43073444491, , , , , , , , , , , , , , , , , , , , , , , , , , , , , , , , , , , , , , , , , , , , , , , , , , , , , , , , , , , , ,
-157.431831941912,148.714818473954,306.146650415865,300.040472013993,572.960827734525,617.429424361487,473.402262894594,81.4222664206199,-55.3541905146901,4.35850673397835,-231.789241178887,227.43073444491, , , , , , , , , , , , , , , , , , , , , , , , , , , , , , , , , , , , , , , , , , , , , , , , , , , , , , , , , , , , ,
-157.431831941912,148.714818473954,306.146650415865,300.040472013993,572.960827734525,613.747427278361,472.084615869871,79.8237373125216,-54.3542300249773,4.35850673397835,-231.789241178887,227.43073444491, , , , , , , , , , , , , , , , , , , , , , , , , , , , , , , , , , , , , , , , , , , , , , , , , , , , , , , , , , , , ,
-157.431831941912,147.626465303683,305.058297245593,300.040472013993,572.960827734525,610.187180133571,467.831355014463,78.2889252043187,-53.4738222469998,4.90268331911432,-231.245064593751,226.342381274638, , , , , , , , , , , , , , , , , , , , , , , , , , , , , , , , , , , , , , , , , , , , , , , , , , , , , , , , , , , , ,
-157.431831941912,146.69562849296,304.127460434871,300.040472013993,572.960827734525,610.808717122408,464.802692876052,77.7035218115799,-52.7569660305791,5.36810172447537,-230.77964618839,225.411544463916, , , , , , , , , , , , , , , , , , , , , , , , , , , , , , , , , , , , , , , , , , , , , , , , , , , , , , , , , , , , ,
-157.431831941912,145.825583503839,303.257415445749,300.040472013993,572.960827734525,608.808712999308,464.057924915218,76.9852104503904,-52.2383459024701,5.80312421903597,-230.34462369383,224.541499474795, , , , , , , , , , , , , , , , , , , , , , , , , , , , , , , , , , , , , , , , , , , , , , , , , , , , , , , , , , , , ,
-157.431831941912,144.923971062782,302.355803004693,300.040472013993,572.960827734525,607.811217169033,459.955305335451,76.0868992657552,-51.9417136414548,6.25393043956433,-229.893817473301,223.639887033738, , , , , , , , , , , , , , , , , , , , , , , , , , , , , , , , , , , , , , , , , , , , , , , , , , , , , , , , , , , , ,
-157.431831941912,143.907842431885,301.339674373795,300.040472013993,572.960827734525,608.087427290762,459.508557116662,74.9726707655179,-51.8790812409487,6.76199475501313,-229.385753157853,222.623758402841, , , , , , , , , , , , , , , , , , , , , , , , , , , , , , , , , , , , , , , , , , , , , , , , , , , , , , , , , , , , ,
-157.431831941912,142.707731191457,300.139563133367,300.040472013993,572.960827734525,605.618517164238,459.02027277058,74.6448091214601,-52.1909786531121,7.36205037522701,-228.785697537639,221.423647162413, , , , , , , , , , , , , , , , , , , , , , , , , , , , , , , , , , , , , , , , , , , , , , , , , , , , , , , , , , , , ,
-157.431831941912,141.270475188289,298.702307130199,300.040472013993,572.960827734525,604.870788289276,455.186323193556,74.1434039088347,-52.9625343597499,8.08067837681097,-228.067069536055,219.986391159245, , , , , , , , , , , , , , , , , , , , , , , , , , , , , , , , , , , , , , , , , , , , , , , , , , , , , , , , , , , , ,
-157.431831941912,139.560648304418,296.992480246328,300.040472013993,572.960827734525,604.995172625959,453.25834787551,73.1469172854435,-53.8116124345777,8.93559181874651,-227.212156094119,218.276564275374, , , , , , , , , , , , , , , , , , , , , , , , , , , , , , , , , , , , , , , , , , , , , , , , , , , , , , , , , , , , ,
-157.431831941912,137.560609506234,294.992441448144,300.040472013993,572.960827734525,605.105995784744,452.67318840237,71.7270748511716,-54.9244674570193,9.93561121783859,-226.212136695027,216.27652547719, , , , , , , , , , , , , , , , , , , , , , , , , , , , , , , , , , , , , , , , , , , , , , , , , , , , , , , , , , , , ,
-157.431831941912,135.269322884013,292.701154825923,300.040472013993,572.960827734525,605.230621567441,452.181602434595,69.9707829190911,-55.8869944843924,11.0812545289492,-225.066493383917,213.985238854969, , , , , , , , , , , , , , , , , , , , , , , , , , , , , , , , , , , , , , , , , , , , , , , , , , , , , , , , , , , , ,
-157.431831941912,132.700219472876,290.132051414787,300.040472013993,572.960827734525,605.382350722658,449.392816714263,67.9754150791809,-57.3694087488744,12.3658062345174,-223.781941678348,211.416135443832, , , , , , , , , , , , , , , , , , , , , , , , , , , , , , , , , , , , , , , , , , , , , , , , , , , , , , , , , , , , ,
-157.431831941912,129.878432918886,287.310264860796,300.040472013993,572.960827734525,605.561764565644,446.350974543749,65.8437637093438,-58.6697478405109,13.7766995115125,-222.371048401353,208.594348889842, , , , , , , , , , , , , , , , , , , , , , , , , , , , , , , , , , , , , , , , , , , , , , , , , , , , , , , , , , , , ,
-157.431831941912,126.837742959486,284.269574901396,300.040472013993,572.960827734525,605.759592552987,446.21692256811,63.6791318628711,-60.2601270131436,15.2970444912125,-220.850703421653,205.553658930442, , , , , , , , , , , , , , , , , , , , , , , , , , , , , , , , , , , , , , , , , , , , , , , , , , , , , , , , , , , , ,
-157.431831941912,124.70587883519,282.1377107771,300.040472013993,572.960827734525,605.960703359404,441.366471695425,61.5809159512,-61.428275760466,16.3629765533605,-219.784771359505,203.421794806146, , , , , , , , , , , , , , , , , , , , , , , , , , , , , , , , , , , , , , , , , , , , , , , , , , , , , , , , , , , , ,
-157.431831941912,122.279154867021,279.710986808931,300.040472013993,572.960827734525,606.148660502964,441.21301940046,59.6408982672795,-62.6684379559868,17.5763385374449,-218.571409375421,200.995070837977, , , , , , , , , , , , , , , , , , , , , , , , , , , , , , , , , , , , , , , , , , , , , , , , , , , , , , , , , , , , ,
-157.431831941912,119.696970105195,277.128802047105,300.040472013993,572.960827734525,606.310217834485,441.783372351794,57.940360998017,-64.095895139468,18.867430918358,-217.280316994508,198.412886076151, , , , , , , , , , , , , , , , , , , , , , , , , , , , , , , , , , , , , , , , , , , , , , , , , , , , , , , , , , , , ,
-157.431831941912,116.214561890355,273.646393832265,300.040472013993,572.960827734525,606.439172862438,442.649114394412,56.5480546491191,-65.33323008602,20.6086350257779,-215.539112887088,194.930477861311, , , , , , , , , , , , , , , , , , , , , , , , , , , , , , , , , , , , , , , , , , , , , , , , , , , , , , , , , , , , ,
-157.431831941912,113.57385423209,271.005686174,300.040472013993,572.960827734525,606.153247246526,443.797235698997,55.5189976459811,-66.7635580118662,21.9289888549105,-214.218759057955,192.289770203046, , , , , , , , , , , , , , , , , , , , , , , , , , , , , , , , , , , , , , , , , , , , , , , , , , , , , , , , , , , , ,
-157.431831941912,111.093674683937,268.525506625847,300.040472013993,572.821278780436,603.441472899889,445.20389341912,54.8940412055464,-68.0811199548505,23.1690786289871,-212.978669283879,189.809590654893, , , , , , , , , , , , , , , , , , , , , , , , , , , , , , , , , , , , , , , , , , , , , , , , , , , , , , , , , , , , ,
-157.431831941912,108.855318055297,266.287149997207,300.040472013993,569.080008835222,603.564168921717,444.112367061027,54.7000927732259,-69.177057123523,24.2882569433072,-211.859490969559,187.571234026253, , , , , , , , , , , , , , , , , , , , , , , , , , , , , , , , , , , , , , , , , , , , , , , , , , , , , , , , , , , , ,
-157.431831941912,106.945608349444,264.377440291354,300.040472013993,569.181076215418,603.725738901736,443.548469961926,54.0031616690362,-70.2694941611877,25.2431117962335,-210.904636116632,185.6615243204, , , , , , , , , , , , , , , , , , , , , , , , , , , , , , , , , , , , , , , , , , , , , , , , , , , , , , , , , , , , ,
-157.431831941912,105.43356799378,262.86539993569,300.040472013993,567.327842347262,603.969945595153,445.726871523357,53.1568484445064,-71.0656351192313,25.9991319740656,-210.1486159388,184.149483964736, , , , , , , , , , , , , , , , , , , , , , , , , , , , , , , , , , , , , , , , , , , , , , , , , , , , , , , , , , , , ,
-157.431831941912,103.331605228064,260.763437169974,300.040472013993,565.890412248059,604.345855452478,443.67040753391,54.1410600735546,-71.898551481814,27.0501133569235,-209.097634555942,182.04752119902, , , , , , , , , , , , , , , , , , , , , , , , , , , , , , , , , , , , , , , , , , , , , , , , , , , , , , , , , , , , ,
-157.431831941912,101.50541334076,258.93724528267,300.040472013993,565.139293568738,604.903230689968,445.82276939917,55.5828461656632,-72.6058288044976,27.9632093005757,-208.18453861229,180.221329311716, , , , , , , , , , , , , , , , , , , , , , , , , , , , , , , , , , , , , , , , , , , , , , , , , , , , , , , , , , , , ,
-157.431831941912,101.165082285104,258.596914227014,300.040472013993,563.38188563378,605.687453203028,448.559133618891,57.4569732442032,-73.5684717868788,28.1333748284037,-208.014373084462,179.88099825606, , , , , , , , , , , , , , , , , , , , , , , , , , , , , , , , , , , , , , , , , , , , , , , , , , , , , , , , , , , , ,
-157.431831941912,101.376581983184,258.808413925094,300.040472013993,564.177900909819,604.419228918282,451.315413964615,59.7289763759604,-74.3213989448557,28.0276249793635,-208.120122933502,180.09249795414, , , , , , , , , , , , , , , , , , , , , , , , , , , , , , , , , , , , , , , , , , , , , , , , , , , , , , , , , , , , ,
-157.431831941912,102.154142436922,259.585974378832,300.040472013993,565.047443793704,605.005263301187,454.044806085959,62.3560137643653,-74.7078153413278,27.6388447524947,-208.508903160371,180.870058407878, , , , , , , , , , , , , , , , , , , , , , , , , , , , , , , , , , , , , , , , , , , , , , , , , , , , , , , , , , , , ,
-157.431831941912,103.500860387241,260.932692329152,300.040472013993,565.959039046779,606.689430021825,456.706779131417,63.3023293274831,-75.0037722130261,26.9654857773348,-209.182262135531,182.216776358197, , , , , , , , , , , , , , , , , , , , , , , , , , , , , , , , , , , , , , , , , , , , , , , , , , , , , , , , , , , , ,
-157.431831941912,105.408941833741,262.840773775651,300.040472013993,566.878307088683,608.681240715463,458.801339022634,64.8822096229536,-75.1932868227404,26.0114450540849,-210.136302858781,184.124857804697, , , , , , , , , , , , , , , , , , , , , , , , , , , , , , , , , , , , , , , , , , , , , , , , , , , , , , , , , , , , ,
-157.431831941912,107.859432756197,265.291264698107,300.040472013993,567.769998503231,610.950084000712,458.769912025854,66.4489353420859,-75.2574681946045,24.7861995928571,-211.361548320009,186.575348727153, , , , , , , , , , , , , , , , , , , , , , , , , , , , , , , , , , , , , , , , , , , , , , , , , , , , , , , , , , , , ,
-157.431831941912,108.087823527358,265.519655469268,300.040472013993,568.599947964765,613.442839757406,461.400198521609,67.7300078317725,-75.1756478110216,24.6720042072764,-211.475743705589,186.803739498314, , , , , , , , , , , , , , , , , , , , , , , , , , , , , , , , , , , , , , , , , , , , , , , , , , , , , , , , , , , , ,
-157.431831941912,109.446676380707,266.878508322617,300.040472013993,569.336767184539,616.085719267771,463.841046418516,69.1172706564816,-74.9268662952687,23.9925777806022,-212.155170132264,188.162592351663, , , , , , , , , , , , , , , , , , , , , , , , , , , , , , , , , , , , , , , , , , , , , , , , , , , , , , , , , , , , ,
-157.431831941912,111.068212409758,268.500044351668,300.040472013993,569.953132708776,618.787658228606,466.064401162,70.6893585322098,-74.4916428623943,23.1818097660766,-212.965938146789,189.784128380714, , , , , , , , , , , , , , , , , , , , , , , , , , , , , , , , , , , , , , , , , , , , , , , , , , , , , , , , , , , , ,
-157.431831941912,111.904680511223,269.336512453133,300.040472013993,570.11335442316,621.37085887172,468.041812317022,72.778472923899,-73.8539422744466,22.763575715344,-213.384172197522,190.620596482179, , , , , , , , , , , , , , , , , , , , , , , , , , , , , , , , , , , , , , , , , , , , , , , , , , , , , , , , , , , , ,
-157.431831941912,113.285751589,270.717583530911,300.040472013993,569.589990945567,622.217159848484,469.743154214004,74.6360302966609,-73.0032437293372,22.0730401764554,-214.07470773641,192.001667559956, , , , , , , , , , , , , , , , , , , , , , , , , , , , , , , , , , , , , , , , , , , , , , , , , , , , , , , , , , , , ,
-157.431831941912,115.305429522757,272.737261464667,300.040472013993,569.066270657636,623.146796398617,471.135832919877,77.3702236519111,-71.9365988112215,21.0632012095771,-215.084546703289,194.021345493713, , , , , , , , , , , , , , , , , , , , , , , , , , , , , , , , , , , , , , , , , , , , , , , , , , , , , , , , , , , , ,
-157.431831941912,117.768223640147,275.200055582057,300.040472013993,569.289560213573,624.098328897157,472.184531796166,79.0867499346912,-70.6605389237954,19.8318041508821,-216.315943761984,196.484139611103, , , , , , , , , , , , , , , , , , , , , , , , , , , , , , , , , , , , , , , , , , , , , , , , , , , , , , , , , , , , ,
-157.431831941912,120.358127324175,277.789959266085,300.040472013993,569.212435771237,625.381003567815,472.851504192012,81.1773546352501,-69.192663031069,18.5368523088681,-217.610895603998,199.074043295131, , , , , , , , , , , , , , , , , , , , , , , , , , , , , , , , , , , , , , , , , , , , , , , , , , , , , , , , , , , , ,
-157.431831941912,122.378239729224,279.810071671135,300.040472013993,568.823428712603,625.943246385929,473.090808392749,83.4996054256529,-67.5627156939812,17.5267961063433,-218.620951806522,201.09415570018, , , , , , , , , , , , , , , , , , , , , , , , , , , , , , , , , , , , , , , , , , , , , , , , , , , , , , , , , , , , ,
-157.431831941912,125.143990064568,282.575822006478,300.040472013993,568.114329879215,626.816035094872,472.586755228455,85.2472042764304,-65.8129658931377,16.1439209386716,-220.003826974194,203.859906035524, , , , , , , , , , , , , , , , , , , , , , , , , , , , , , , , , , , , , , , , , , , , , , , , , , , , , , , , , , , , ,
-157.431831941912,127.697603047128,285.129434989038,300.040472013993,567.079335510706,626.793106547333,471.799601806734,87.3008835869271,-63.9977280386478,14.8671144473914,-221.280633465474,206.413519018084, , , , , , , , , , , , , , , , , , , , , , , , , , , , , , , , , , , , , , , , , , , , , , , , , , , , , , , , , , , , ,
-154.421270522431,129.852817640057,284.274088162486,300.040472013993,565.715065559548,626.41539222353,470.562484454456,88.3004196228023,-62.1819277621262,12.2842264411869,-219.347679342458,207.063452901272, , , , , , , , , , , , , , , , , , , , , , , , , , , , , , , , , , , , , , , , , , , , , , , , , , , , , , , , , , , , ,
-149.164970376041,131.589410271315,280.754380647355,300.040472013993,564.021652140517,625.395061899348,468.980584276046,89.5845261364511,-60.4386955597839,8.7877800523625,-214.959675511697,206.171895459336, , , , , , , , , , , , , , , , , , , , , , , , , , , , , , , , , , , , , , , , , , , , , , , , , , , , , , , , , , , , ,
-143.536828420232,132.125198919078,275.662027339309,300.040472013993,562.004915367189,623.947369254171,466.84496905639,89.7635324871607,-58.8460555200104,5.70581475057658,-209.59942787977,203.893613129194, , , , , , , , , , , , , , , , , , , , , , , , , , , , , , , , , , , , , , , , , , , , , , , , , , , , , , , , , , , , ,
-138.192993090156,134.880474205495,273.07346729565,300.040472013993,559.6794703073,622.173092557967,464.02551716414,90.2695028394926,-57.4828537246728,1.65625944233036,-205.633230192903,203.976970750574, , , , , , , , , , , , , , , , , , , , , , , , , , , , , , , , , , , , , , , , , , , , , , , , , , , , , , , , , , , , ,
-132.220948663139,133.959171808968,266.180120472106,300.040472013993,557.072465950132,618.938882324562,460.593954003094,89.6289871993947,-56.4241401069839,-0.869111572914614,-199.200534567622,200.069646140537, , , , , , , , , , , , , , , , , , , , , , , , , , , , , , , , , , , , , , , , , , , , , , , , , , , , , , , , , , , , ,
-126.899633868489,132.896081183013,259.795715051501,300.040472013993,554.227545228263,615.453770991321,456.59224742423,88.7335427479031,-55.736280607185,-2.99822365726195,-193.347674459994,196.345898117257, , , , , , , , , , , , , , , , , , , , , , , , , , , , , , , , , , , , , , , , , , , , , , , , , , , , , , , , , , , , ,
-120.92373113376,132.799570597287,253.723301731045,300.040472013993,551.208523469771,610.79009803634,451.861163278621,87.2624102809417,-55.4721308147771,-5.93791973176368,-187.323516432402,193.261436164167, , , , , , , , , , , , , , , , , , , , , , , , , , , , , , , , , , , , , , , , , , , , , , , , , , , , , , , , , , , , ,
-115.056004362746,131.372411358841,246.428415721586,300.040472013993,548.102210189534,605.368445804298,446.91076168615,84.3734081931329,-55.6666402853896,-8.15820349804758,-180.742210042165,188.900413540214, , , , , , , , , , , , , , , , , , , , , , , , , , , , , , , , , , , , , , , , , , , , , , , , , , , , , , , , , , , , ,
-111.706525469492,129.883708080675,241.590233550166,300.040472013993,545.019757787715,599.556653935242,441.864659019629,82.6020765226664,-56.3332689833095,-9.08859130559189,-176.648379509828,185.736970815422, , , , , , , , , , , , , , , , , , , , , , , , , , , , , , , , , , , , , , , , , , , , , , , , , , , , , , , , , , , , ,
-106.393546183115,126.67714520236,233.070691385474,300.040472013993,542.095928013377,592.89999195629,436.770894838774,79.0709903869169,-57.4615733498812,-10.1417995096226,-169.732118784294,179.873918293918, , , , , , , , , , , , , , , , , , , , , , , , , , , , , , , , , , , , , , , , , , , , , , , , , , , , , , , , , , , , ,
-103.795376825051,123.50349299072,227.29886981577,300.040472013993,537.661990823867,585.797512466109,431.825616123544,75.2603431575573,-59.0162514221419,-9.85405808283466,-165.54712332041,175.401181403246, , , , , , , , , , , , , , , , , , , , , , , , , , , , , , , , , , , , , , , , , , , , , , , , , , , , , , , , , , , , ,
-100.540687900327,121.797412171543,222.338100071868,294.752145532543,526.769466731285,578.293469870503,427.248358463978,71.3271252351871,-60.9378276618332,-10.6283621356082,-161.439393986096,172.067756121706, , , , , , , , , , , , , , , , , , , , , , , , , , , , , , , , , , , , , , , , , , , , , , , , , , , , , , , , , , , , ,
-98.1947621942216,120.762080638143,218.956842832363,286.475477531395,514.736101891384,570.541989948911,423.27263507134,67.1459403854093,-63.1450260302734,-11.2836592219608,-158.575802513292,169.859461735254, , , , , , , , , , , , , , , , , , , , , , , , , , , , , , , , , , , , , , , , , , , , , , , , , , , , , , , , , , , , ,
-98.3706894749018,117.673912622547,216.044602097448,275.42080067526,503.58832310723,562.795693580668,420.133579796053,62.9851029881867,-65.5387460272093,-9.6516115738229,-157.207645786174,166.859257359998, , , , , , , , , , , , , , , , , , , , , , , , , , , , , , , , , , , , , , , , , , , , , , , , , , , , , , , , , , , , ,
-98.7645595256603,115.333921563794,214.098481089453,259.698357486976,493.52571911693,555.401744019879,410.505451639562,58.486393789702,-68.0074352948771,-8.28468101906707,-156.431520307556,164.716201326624, , , , , , , , , , , , , , , , , , , , , , , , , , , , , , , , , , , , , , , , , , , , , , , , , , , , , , , , , , , , ,
-98.4921182143545,113.29520643927,211.787324653623,244.976066568949,484.736077594795,548.322055622239,402.113061012374,54.7770282626491,-70.4335485458453,-7.40154411245816,-155.139721433988,162.541265546448, , , , , , , , , , , , , , , , , , , , , , , , , , , , , , , , , , , , , , , , , , , , , , , , , , , , , , , , , , , , ,
-98.6314559156816,111.991761884844,210.623217800524,231.584663147011,478.143823145601,542.327207432938,395.096707364876,51.3845893901477,-72.70069576588,-6.68015298458131,-154.627336858102,161.307489842685, , , , , , , , , , , , , , , , , , , , , , , , , , , , , , , , , , , , , , , , , , , , , , , , , , , , , , , , , , , , ,
-98.0090915782433,111.64490684516,209.653998423401,220.284166646415,473.318891685647,537.306195743613,389.552538139042,48.593974327498,-74.7010132174489,-6.81790763345833,-153.831545000822,160.649452634281, , , , , , , , , , , , , , , , , , , , , , , , , , , , , , , , , , , , , , , , , , , , , , , , , , , , , , , , , , , , ,
-97.4222548929091,112.205176051502,209.62743094441,217.28691796094,468.835241455242,533.023554252449,385.525647896682,46.000046616851,-76.3422436090341,-7.39146057929677,-153.524842918659,160.916303497957, , , , , , , , , , , , , , , , , , , , , , , , , , , , , , , , , , , , , , , , , , , , , , , , , , , , , , , , , , , , ,
-99.1039343637775,113.717733591692,212.821667955468,208.610741897005,466.074046458482,530.509334072074,383.004263798541,44.4746273700726,-77.553997252432,-7.30689961395762,-155.962801159622,163.269700773581, , , , , , , , , , , , , , , , , , , , , , , , , , , , , , , , , , , , , , , , , , , , , , , , , , , , , , , , , , , , ,
-101.392713321918,116.317663225952,217.710376547869,201.817765891961,464.972561019403,528.565472543814,382.03412628096,43.9529248719495,-78.2926952326162,-7.4624749520174,-159.551544934893,167.014019886911, , , , , , , , , , , , , , , , , , , , , , , , , , , , , , , , , , , , , , , , , , , , , , , , , , , , , , , , , , , , ,
-102.702254988779,119.85550074297,222.557755731747,196.883900611396,465.38401488808,528.239166013141,382.489873521021,43.9572436547568,-78.5447748156431,-8.57662287709599,-162.630005360262,171.206628237359, , , , , , , , , , , , , , , , , , , , , , , , , , , , , , , , , , , , , , , , , , , , , , , , , , , , , , , , , , , , ,
-106.412496397379,123.947358461162,230.35985485854,193.706609554926,467.074108539334,529.244373423518,383.764824383235,44.8977651647342,-78.3278660302873,-8.76743103189174,-168.386175627959,177.153606659852, , , , , , , , , , , , , , , , , , , , , , , , , , , , , , , , , , , , , , , , , , , , , , , , , , , , , , , , , , , , ,
-107.883173259419,129.062202201139,236.945375460556,192.113412613158,469.722577722597,531.083897137176,385.832785770495,46.3176814951256,-77.6898187458674,-10.5895144708602,-172.414274359987,183.003788830848, , , , , , , , , , , , , , , , , , , , , , , , , , , , , , , , , , , , , , , , , , , , , , , , , , , , , , , , , , , , ,
-111.660569607321,132.388898991656,244.049468598975,191.873219508172,472.93052857182,533.757420131805,388.388575977061,48.3604120225982,-76.7056554548202,-10.3641646921677,-177.855019103147,188.219183795316, , , , , , , , , , , , , , , , , , , , , , , , , , , , , , , , , , , , , , , , , , , , , , , , , , , , , , , , , , , , ,
-115.42009576225,136.606983355758,252.027079118007,192.70971143688,476.233961890995,536.651346983489,391.034725039294,53.3461843992591,-75.472719874437,-10.5934437967545,-183.723587440128,194.317031236883, , , , , , , , , , , , , , , , , , , , , , , , , , , , , , , , , , , , , , , , , , , , , , , , , , , , , , , , , , , , ,
-118.497666533039,142.435947796131,260.933614329168,194.316028855534,479.123567701271,538.857495092972,393.531719110625,60.5873190020728,-74.1044489208647,-11.969140631546,-189.715640431103,201.68478106265, , , , , , , , , , , , , , , , , , , , , , , , , , , , , , , , , , , , , , , , , , , , , , , , , , , , , , , , , , , , ,
-122.301145177377,148.333389935817,270.634535113193,196.370097107402,481.070483323338,541.086318399181,395.69611744283,66.3083197724305,-72.7232832774202,-13.01612237922,-196.467840145284,209.483962524506, , , , , , , , , , , , , , , , , , , , , , , , , , , , , , , , , , , , , , , , , , , , , , , , , , , , , , , , , , , , ,
-125.647918483269,152.415156709073,278.06307519234,198.550000837376,482.588582335559,541.761742016092,397.030480237082,70.5771629121048,-71.4532436474669,-13.3836191129024,-201.855496837804,215.239115950707, , , , , , , , , , , , , , , , , , , , , , , , , , , , , , , , , , , , , , , , , , , , , , , , , , , , , , , , , , , , ,
-129.530705159324,156.184851392756,285.715556552078,200.548886713065,482.437199063491,541.415491749012,397.333309747538,77.5529697558293,-70.4126572337195,-13.3270731167165,-207.6231308557,220.950203972418, , , , , , , , , , , , , , , , , , , , , , , , , , , , , , , , , , , , , , , , , , , , , , , , , , , , , , , , , , , , ,
-133.348680019873,158.208805650721,291.557485670592,202.0889268746,479.51607972522,539.279654852483,395.82382323991,81.4397208394693,-69.7074481226728,-12.4300628154241,-212.453082845232,224.883145660657, , , , , , , , , , , , , , , , , , , , , , , , , , , , , , , , , , , , , , , , , , , , , , , , , , , , , , , , , , , , ,
-135.251636742024,160.616121782841,295.867758524864,202.933913568095,473.748612314373,535.055289963175,392.568269477298,83.3915659676852,-69.4253208576708,-12.6822425204085,-215.559697633443,228.241940153853, , , , , , , , , , , , , , , , , , , , , , , , , , , , , , , , , , , , , , , , , , , , , , , , , , , , , , , , , , , , ,
-134.462709424445,162.135518917783,296.598228342227,202.9000820197,465.314398535717,526.696248919696,387.455838753855,83.4996054256529,-69.6310755603015,-13.8364047466695,-215.530468883335,229.366873630006, , , , , , , , , , , , , , , , , , , , , , , , , , , , , , , , , , , , , , , , , , , , , , , , , , , , , , , , , , , , ,
-137.034867708845,162.270080065881,299.304947774724,201.864775727271,454.263158845073,515.762091929391,380.479078496697,82.2132543987522,-70.3632017577912,-12.617606178518,-218.169907741784,230.787513920303, , , , , , , , , , , , , , , , , , , , , , , , , , , , , , , , , , , , , , , , , , , , , , , , , , , , , , , , , , , , ,
-140.378161273219,157.91501243712,298.293173710338,199.772576502328,440.850230921606,502.566177713339,372.370760218367,80.0385938301403,-71.6318117642643,-8.76842558195026,-219.335667491778,228.104093073729, , , , , , , , , , , , , , , , , , , , , , , , , , , , , , , , , , , , , , , , , , , , , , , , , , , , , , , , , , , , ,
-143.35569590927,154.464768968981,297.82046487825,196.63852472487,425.547908287559,487.547379926221,363.415560160205,75.2819082330969,-73.4178954098668,-5.55453652985539,-220.588080393759,226.142616923616, , , , , , , , , , , , , , , , , , , , , , , , , , , , , , , , , , , , , , , , , , , , , , , , , , , , , , , , , , , , ,
-145.87267574025,148.714818473954,294.587494214203,192.548060291151,409.043170131787,471.346146524882,352.417207103648,67.2661177771957,-75.67380732784,-1.4210713668526,-220.230084977225,221.651156344079, , , , , , , , , , , , , , , , , , , , , , , , , , , , , , , , , , , , , , , , , , , , , , , , , , , , , , , , , , , , ,
-147.829587001269,141.453908203497,289.283495204765,187.65332847968,392.219644212038,454.793763989117,340.838467852373,61.7833359793205,-78.3248376726456,3.18783939888551,-218.556541103016,215.368701704132, , , , , , , , , , , , , , , , , , , , , , , , , , , , , , , , , , , , , , , , , , , , , , , , , , , , , , , , , , , , ,
-149.128355881338,132.757023407414,281.885379288751,182.165526115726,376.122365689855,438.887274320474,329.312589106337,57.7334872823702,-80.9832661052832,8.18566623696151,-215.506867585044,207.321201348083, , , , , , , , , , , , , , , , , , , , , , , , , , , , , , , , , , , , , , , , , , , , , , , , , , , , , , , , , , , , ,
-149.679292314088,122.917425721786,272.596718035872,176.343023658334,364.358037634774,425.531511409562,318.568566312286,50.6768537612929,-84.1051026932651,13.3809332961507,-211.138005174979,197.75707187883, , , , , , , , , , , , , , , , , , , , , , , , , , , , , , , , , , , , , , , , , , , , , , , , , , , , , , , , , , , , ,
-149.408288733606,113.054325102038,262.462613835643,170.475101149443,354.538406896578,416.687169435562,312.220980405085,42.3545844262933,-86.8347787523101,18.1769818157837,-205.935451284624,187.758469468841, , , , , , , , , , , , , , , , , , , , , , , , , , , , , , , , , , , , , , , , , , , , , , , , , , , , , , , , , , , , ,
-148.263718595284,102.068163332968,250.33188192825,164.861297099859,349.487603585159,409.668203322662,306.264814064226,37.5419367603184,-89.8763984325378,23.0977776311578,-199.297800261766,176.200022630609, , , , , , , , , , , , , , , , , , , , , , , , , , , , , , , , , , , , , , , , , , , , , , , , , , , , , , , , , , , , ,
-146.222498416971,90.9236511717072,237.146149588677,159.786611861838,349.929047670709,407.902259516766,303.008790804718,34.7287975157934,-92.5304877949476,27.6494236226315,-191.684324002823,164.034900380193, , , , , , , , , , , , , , , , , , , , , , , , , , , , , , , , , , , , , , , , , , , , , , , , , , , , , , , , , , , , ,
-143.294832118696,80.2512918230873,223.546123941782,155.493148704041,354.242521347207,412.320817538886,303.611931611069,34.0247379459665,-94.8441895548195,31.5217701478041,-183.420478030238,151.898707882435, , , , , , , , , , , , , , , , , , , , , , , , , , , , , , , , , , , , , , , , , , , , , , , , , , , , , , , , , , , , ,
-139.527236938955,70.5995610154238,210.126797954377,152.149212470529,368.621044329026,423.574327111114,308.619777530518,35.0598774363735,-96.3681696406556,34.4638379617653,-174.827017446665,140.363179484901, , , , , , , , , , , , , , , , , , , , , , , , , , , , , , , , , , , , , , , , , , , , , , , , , , , , , , , , , , , , ,
-135.003547583608,62.2546744690261,197.258222052633,149.817383510223,385.557954359677,441.932178357647,318.366130973483,37.8386034711904,-97.2740009049692,36.3744365572909,-166.13088481812,129.75644826083, , , , , , , , , , , , , , , , , , , , , , , , , , , , , , , , , , , , , , , , , , , , , , , , , , , , , , , , , , , , ,
-129.843705250033,54.2801014516646,184.123806701696,148.423582932437,407.900329055991,467.189276857485,333.422765714949,42.9347431877815,-97.2293724868673,37.7818018991838,-156.983755975863,119.201954076681, , , , , , , , , , , , , , , , , , , , , , , , , , , , , , , , , , , , , , , , , , , , , , , , , , , , , , , , , , , , ,
-124.200255952498,48.1124215159702,172.312677468467,147.729562637476,434.547097296117,501.416767274796,357.088493374249,50.0078805094951,-96.01466136662,38.0439172182637,-148.256466710482,110.212549492219, , , , , , , , , , , , , , , , , , , , , , , , , , , , , , , , , , , , , , , , , , , , , , , , , , , , , , , , , , , , ,
-118.252597495249,44.9841401211544,163.236737616402,147.311501954315,463.587936580735,538.005840769194,380.216806303043,59.5411247332019,-93.6341236603599,36.6342286870471,-140.744667555825,104.110438868779, , , , , , , , , , , , , , , , , , , , , , , , , , , , , , , , , , , , , , , , , , , , , , , , , , , , , , , , , , , , ,
-112.199117320458,42.8612980931562,155.060415413613,146.54740485737,492.435032930122,576.963624249524,408.677663817942,71.5237636849294,-89.6084120564379,34.6689096136506,-133.629766367034,98.9608567533851, , , , , , , , , , , , , , , , , , , , , , , , , , , , , , , , , , , , , , , , , , , , , , , , , , , , , , , , , , , , ,
-106.247461416401,44.9803535600408,151.22781497644,144.615743000806,517.857531193124,616.017534966738,438.736518754919,84.9129141838342,-84.4524054314195,30.6335539281799,-128.73763819642,98.1040842682413, , , , , , , , , , , , , , , , , , , , , , , , , , , , , , , , , , , , , , , , , , , , , , , , , , , , , , , , , , , , ,
-100.603292943514,47.8998040314239,148.503096974937,140.797640914253,536.061614217441,651.912159068233,465.449023710443,99.8359042336029,-77.5844042747608,26.351744456045,-124.553194959225,98.2014505031811, , , , , , , , , , , , , , , , , , , , , , , , , , , , , , , , , , , , , , , , , , , , , , , , , , , , , , , , , , , , ,
-95.458062560413,54.0390745504281,149.49713711084,135.222749249369,542.816480427536,680.878544600026,489.292925675756,115.617045661483,-69.4641122180936,20.7094940049923,-122.477599835626,101.768105830635, , , , , , , , , , , , , , , , , , , , , , , , , , , , , , , , , , , , , , , , , , , , , , , , , , , , , , , , , , , , ,
-90.9765161882443,63.3266524024952,154.303168590738,123.127056873384,533.622902130145,698.757591069962,507.715554910896,132.224973495314,-59.5065832297834,13.8249318928743,-122.63984238949,108.814910496617, , , , , , , , , , , , , , , , , , , , , , , , , , , , , , , , , , , , , , , , , , , , , , , , , , , , , , , , , , , , ,
-87.2848632091784,75.5487347554455,162.833597964622,104.988665189503,503.917263091014,701.159843111702,517.942260208018,147.922789991778,-48.5705723836442,5.86806422686624,-125.0592305869,119.191166360035, , , , , , , , , , , , , , , , , , , , , , , , , , , , , , , , , , , , , , , , , , , , , , , , , , , , , , , , , , , , ,
-84.4606404232851,90.3466900487774,174.807330472061,79.4515134334728,449.300379487674,683.654981496073,517.509538795184,162.367686449262,-35.9706423048756,-2.94302481274638,-129.633985447672,132.57701026042, , , , , , , , , , , , , , , , , , , , , , , , , , , , , , , , , , , , , , , , , , , , , , , , , , , , , , , , , , , , ,
-82.5252580098463,108.77148023754,191.296738247385,45.2390214109095,365.77745851392,641.981410799387,507.517090015275,174.520850125308,-22.7580487999543,-13.1231111138472,-136.910998128615,150.034109242463, , , , , , , , , , , , , , , , , , , , , , , , , , , , , , , , , , , , , , , , , , , , , , , , , , , , , , , , , , , , ,
-81.4399784612274,128.221783680323,209.661762141549,2.28725362500364,249.993627451981,572.264044720064,475.828749294782,183.696304784626,-8.55133095195639,-23.3909026095482,-145.550870301388,168.941772910937, , , , , , , , , , , , , , , , , , , , , , , , , , , , , , , , , , , , , , , , , , , , , , , , , , , , , , , , , , , , ,
-81.1057214206034,147.754629981659,228.860351402261,-50.6889633894627,99.4487618976679,471.2268865875,427.631265173907,188.919088279937,6.33759715956587,-33.324454280528,-154.983036411431,188.307490691961, , , , , , , , , , , , , , , , , , , , , , , , , , , , , , , , , , , , , , , , , , , , , , , , , , , , , , , , , , , , ,
-81.3667288350616,166.226372496789,247.593101331849,-115.131739152727,-87.3241504146165,337.313064262529,357.740413354387,187.922831064146,21.1458148918935,-42.4298218308637,-164.479915083454,206.909736914319, , , , , , , , , , , , , , , , , , , , , , , , , , , , , , , , , , , , , , , , , , , , , , , , , , , , , , , , , , , , ,
-82.0178567455543,183.874993161115,265.892849906668,-191.285358246418,-307.765320265462,169.893255075306,262.616956333567,182.870912589936,35.9673760035435,-50.9285682077806,-173.95535332611,224.883921533892, , , , , , , , , , , , , , , , , , , , , , , , , , , , , , , , , , , , , , , , , , , , , , , , , , , , , , , , , , , , ,
-82.8150843501087,199.9010328105,282.716117160607,-278.992203057821,-563.835889555863,-35.902458553882,143.775925247396,171.034882127786,50.291272363073,-58.5429742301958,-182.765600755357,241.308574985554, , , , , , , , , , , , , , , , , , , , , , , , , , , , , , , , , , , , , , , , , , , , , , , , , , , , , , , , , , , , ,
-83.4886924219145,213.546242278433,297.034934700346,-377.681450614824,-853.362672988866,-275.331166212379,2.27021321992646,152.843040892133,63.8765596070799,-65.0287749282593,-190.261813561129,255.29058848939, , , , , , , , , , , , , , , , , , , , , , , , , , , , , , , , , , , , , , , , , , , , , , , , , , , , , , , , , , , , ,
-83.7584123058261,224.153020736893,307.911433042718,-486.383923013852,-1173.01866121157,-546.823727693329,-160.831130569443,127.573135472555,76.8899168654415,-70.1973042155338,-195.834922674271,266.032226889806, , , , , , , , , , , , , , , , , , , , , , , , , , , , , , , , , , , , , , , , , , , , , , , , , , , , , , , , , , , , ,
-83.3496690782579,231.950255108104,315.299924186361,-603.773129485163,-1518.46948288905,-851.125332513729,-349.589422477645,95.1632404127005,88.1943936977998,-74.3002930149233,-199.324796632308,273.625089647233, , , , , , , , , , , , , , , , , , , , , , , , , , , , , , , , , , , , , , , , , , , , , , , , , , , , , , , , , , , , ,
-82.0098602206016,234.886644013013,316.896504233613,-728.230321123877,-1884.58241628597,-1177.65558276192,-556.515575647972,55.7608440612491,98.039921075147,-76.438391896206,-199.453182227107,275.891574123314, , , , , , , , , , , , , , , , , , , , , , , , , , , , , , , , , , , , , , , , , , , , , , , , , , , , , , , , , , , , ,
-79.5234736409234,233.547599409003,313.071073049925,-857.929219464693,-2265.68402866636,-1525.99258408556,-782.147101568664,9.71123501162589,106.292290580891,-77.0120628840399,-196.297273345423,273.309336229465, , , , , , , , , , , , , , , , , , , , , , , , , , , , , , , , , , , , , , , , , , , , , , , , , , , , , , , , , , , , ,
-75.7248059623695,227.779233052137,303.504039014505,-990.934202735364,-2655.84763139551,-1891.12452706877,-1021.48116397452,-42.4661846890074,112.880967912334,-76.027213544884,-189.614422488437,265.641636033322, , , , , , , , , , , , , , , , , , , , , , , , , , , , , , , , , , , , , , , , , , , , , , , , , , , , , , , , , , , , ,
-70.5071167836341,218.898884060196,289.406000843828,-1125.30442655653,-3049.18846780556,-2267.80790567198,-1276.52743116962,-100.111618369067,117.797636365817,-74.1958836382809,-179.95655881373,254.152442452013, , , , , , , , , , , , , , , , , , , , , , , , , , , , , , , , , , , , , , , , , , , , , , , , , , , , , , , , , , , , ,
-63.8272427661444,205.994203586313,269.821446352456,-1259.19593999843,-3440.1437284379,-2655.2444324848,-1538.50684162018,-162.465666168582,121.090460642583,-71.0834804100847,-166.8243445593,237.907824969386, , , , , , , , , , , , , , , , , , , , , , , , , , , , , , , , , , , , , , , , , , , , , , , , , , , , , , , , , , , , ,
-55.7049812230398,189.315201287279,245.020182510317,-1390.95452614897,-3823.71663645765,-3044.4400551097,-1805.37654954929,-228.713637465701,122.854878780596,-66.8051100321198,-150.362581866678,217.167691898799, , , , , , , , , , , , , , , , , , , , , , , , , , , , , , , , , , , , , , , , , , , , , , , , , , , , , , , , , , , , ,
-46.2169152472962,169.152199699615,215.36911494691,-1519.19361234953,-4195.66867156762,-3430.96064431694,-2078.36030228494,-298.029598369102,123.222174250356,-61.4676422261597,-130.793015097102,192.260657323263, , , , , , , , , , , , , , , , , , , , , , , , , , , , , , , , , , , , , , , , , , , , , , , , , , , , , , , , , , , , ,
-35.4847633286994,145.80256998914,181.287333317838,-1642.85366462268,-4552.65029548918,-3810.97551153301,-2353.17612854477,-369.616479228699,122.347414648828,-55.1589033302206,-108.386048323268,163.54495165349, , , , , , , , , , , , , , , , , , , , , , , , , , , , , , , , , , , , , , , , , , , , , , , , , , , , , , , , , , , , ,
-23.6587673116742,119.54146410379,143.200231415462,-1761.24139497677,-4892.26677744084,-4181.35413799673,-2626.19257853314,-442.738979832728,120.398478193934,-47.941348396058,-83.4294993635676,131.370847759627, , , , , , , , , , , , , , , , , , , , , , , , , , , , , , , , , , , , , , , , , , , , , , , , , , , , , , , , , , , , ,
-10.8970580245181,90.5997538846282,101.496811909145,-1874.04847613937,-5213.08084021411,-4539.70970859987,-2891.10728174935,-516.746663304253,117.547772477526,-39.8513479300552,-56.1969349668308,96.0482828968873, , , , , , , , , , , , , , , , , , , , , , , , , , , , , , , , , , , , , , , , , , , , , , , , , , , , , , , , , , , , ,
2.65767404367142,59.1517274815689,56.494053437896,-1981.3502352497,-5514.55758121532,-4878.26102956421,-3150.61281751373,-591.085459846713,113.967897470685,-30.9047007626204,-26.9181896971116,57.8228904597332, , , , , , , , , , , , , , , , , , , , , , , , , , , , , , , , , , , , , , , , , , , , , , , , , , , , , , , , , , , , ,
16.9025638492003,25.3141484086157,8.41158455941394,-2083.58520755402,-5796.95973702799,-5205.75105553229,-3403.52879094788,-665.296770777238,109.831976947185,-21.1083561289082,4.24548964489389,16.8628664840156, , , , , , , , , , , , , , , , , , , , , , , , , , , , , , , , , , , , , , , , , , , , , , , , , , , , , , , , , , , , ,
31.7981596884368,-10.8429343487302,-42.6410940371684,-2181.51678619466,-6061.2032970498,-5519.94829888369,-3649.02259552971,-739.004474599163,105.3187330398,-10.4776126698535,37.2196268628033,-26.7420141929485, , , , , , , , , , , , , , , , , , , , , , , , , , , , , , , , , , , , , , , , , , , , , , , , , , , , , , , , , , , , ,
47.3892365570606,-49.2746622399577,-96.6638987970197,-2276.17873824243,-6308.68505371756,-5819.187348567,-3886.54293308399,-811.891387665151,100.62164138972,0.942712841448346,72.0265676770409,-72.9692805184879, , , , , , , , , , , , , , , , , , , , , , , , , , , , , , , , , , , , , , , , , , , , , , , , , , , , , , , , , , , , ,
63.8208133381432,-89.9316294214892,-153.752442759634,-2368.80710321793,-6541.09493131926,-6103.89319062517,-4115.73755513526,-883.668021654568,95.9607432577323,13.0554080416728,108.786628048889,-121.842036090561, , , , , , , , , , , , , , , , , , , , , , , , , , , , , , , , , , , , , , , , , , , , , , , , , , , , , , , , , , , , ,
81.3474213841392,-132.725665340363,-214.073086724503,-2460.76179691319,-6760.22661081423,-6374.67069108383,-4336.36369013798,-954.037564112075,91.5950483281784,25.6891219781115,147.710254054322,-173.399376032432, , , , , , , , , , , , , , , , , , , , , , , , , , , , , , , , , , , , , , , , , , , , , , , , , , , , , , , , , , , , ,
100.333932894121,-178.685037671506,-279.018970565629,-2553.44190581336,-6967.79971758511,-6632.16412733206,-4548.20013715592,-1022.66158766092,87.8331202007009,39.1755523886921,189.676451729876,-228.852004118567, , , , , , , , , , , , , , , , , , , , , , , , , , , , , , , , , , , , , , , , , , , , , , , , , , , , , , , , , , , , ,
121.246771905117,-225.319005229719,-346.565777134838,-2648.19903073359,-7165.30544403236,-6863.82036578381,-4750.96937208145,-1089.13089640237,85.0395093287061,52.036116662301,233.906274519978,-285.942391182278, , , , , , , , , , , , , , , , , , , , , , , , , , , , , , , , , , , , , , , , , , , , , , , , , , , , , , , , , , , , ,
144.635077477435,-274.808494607298,-419.443572084735,-2746.25306310476,-7353.88498984465,-7082.15165415201,-4944.27636850388,-1152.94520328104,83.6351621348687,65.0867085649313,282.039324781086,-347.126033346016, , , , , , , , , , , , , , , , , , , , , , , , , , , , , , , , , , , , , , , , , , , , , , , , , , , , , , , , , , , , ,
171.102268077403,-325.519673556911,-496.621941634316,-2848.61447400828,-7534.24693697342,-7287.24752139183,-5127.56860434743,-1213.50421619654,84.0906687869895,77.2087027397537,333.86210485586,-411.070807595613, , , , , , , , , , , , , , , , , , , , , , , , , , , , , , , , , , , , , , , , , , , , , , , , , , , , , , , , , , , , ,
201.269352535739,-376.862097981188,-578.131450516928,-2956.01667162332,-7706.62611483145,-7478.90849557164,-5300.11938146626,-1270.11142263057,86.9120783034349,87.7963727227242,389.700401526335,-477.496774249057, , , , , , , , , , , , , , , , , , , , , , , , , , , , , , , , , , , , , , , , , , , , , , , , , , , , , , , , , , , , ,
235.732149929795,-425.019742184967,-660.751892114764,-3068.86140550285,-7870.78316520096,-7656.64536950506,-5461.03448049992,-1321.99057572519,92.6198893293039,94.6437961275859,448.24202102228,-542.885817149865, , , , , , , , , , , , , , , , , , , , , , , , , , , , , , , , , , , , , , , , , , , , , , , , , , , , , , , , , , , , ,
275.015239563522,-471.725585917034,-746.740825480557,-3187.17970593825,-8026.04128276762,-7819.70925082675,-5609.28047089252,-1368.31371852105,101.722612238419,98.3551731767558,510.87803252204,-609.233205698794, , , , , , , , , , , , , , , , , , , , , , , , , , , , , , , , , , , , , , , , , , , , , , , , , , , , , , , , , , , , ,
319.525917808821,-516.091746359077,-835.617664167899,-3310.61047156396,-8171.35465754829,-7967.14782687345,-5743.73168251454,-1408.23860288372,114.686913801349,98.2829142751275,577.571790988361,-675.854705263487, , , , , , , , , , , , , , , , , , , , , , , , , , , , , , , , , , , , , , , , , , , , , , , , , , , , , , , , , , , , ,
369.511692326329,-557.232276780743,-926.743969107073,-3438.39846514044,-8305.4019197796,-8097.8820944228,-5863.23182632466,-1440.95258717652,131.906764495705,93.8602922272071,648.127830716702,-741.988122943907, , , , , , , , , , , , , , , , , , , , , , , , , , , , , , , , , , , , , , , , , , , , , , , , , , , , , , , , , , , , ,
425.024898407618,-594.311381361422,-1019.33627976904,-3569.41298188558,-8426.69718633835,-8210.79703782511,-5966.66547200149,-1465.71955920704,153.67419702974,84.6432414769017,722.18058908833,-806.823830565231, , , , , , , , , , , , , , , , , , , , , , , , , , , , , , , , , , , , , , , , , , , , , , , , , , , , , , , , , , , , ,
485.897826321929,-626.590706197631,-1112.48853251956,-3702.18765179349,-8533.71090759982,-8304.83928841002,-6053.03406028882,-1481.92618497385,180.154230794058,70.3464399378505,799.193179420746,-869.539619358595, , , , , , , , , , , , , , , , , , , , , , , , , , , , , , , , , , , , , , , , , , , , , , , , , , , , , , , , , , , , ,
551.73122405062,-653.47234559465,-1205.20356964527,-3834.98064691852,-8624.99247869231,-8379.11459924728,-6121.53086862297,-1489.12386670276,211.366209713938,50.870560772015,878.467396847946,-929.33795761996, , , , , , , , , , , , , , , , , , , , , , , , , , , , , , , , , , , , , , , , , , , , , , , , , , , , , , , , , , , , ,
621.898161310371,-674.534713898443,-1296.43287520882,-3965.85307539397,-8699.2865421554,-8432.97803995849,-6171.60938059408,-1487.06317688437,247.173276561051,26.3182762940355,959.165518259594,-985.483794553629, , , , , , , , , , , , , , , , , , , , , , , , , , , , , , , , , , , , , , , , , , , , , , , , , , , , , , , , , , , , ,
695.564072848821,-689.559074101525,-1385.12314695035,-4092.76179011115,-8755.6352401102,-8466.11026684782,-6203.03988237705,-1475.71815580385,287.281031800225,-3.00249937364867,1040.34360989959,-1037.34111052594, , , , , , , , , , , , , , , , , , , , , , , , , , , , , , , , , , , , , , , , , , , , , , , , , , , , , , , , , , , , ,
771.722445027206,-698.545275229644,-1470.26772025685,-4213.66142364953,-8793.45953034389,-8478.57417715947,-6215.94989810126,-1455.29869062629,331.245641210802,-36.5885848987812,1120.99508264203,-1084.40649774325, , , , , , , , , , , , , , , , , , , , , , , , , , , , , , , , , , , , , , , , , , , , , , , , , , , , , , , , , , , , ,
849.24415724856,-701.716145197331,-1550.96030244589,-4326.60923933234,-8812.61409909601,-8470.84775194726,-6210.8453223161,-1426.25023720853,378.490777892495,-73.764006025615,1200.10222984723,-1126.33822382161, , , , , , , , , , , , , , , , , , , , , , , , , , , , , , , , , , , , , , , , , , , , , , , , , , , , , , , , , , , , ,
926.937049467186,-699.510974114754,-1626.44802358194,-4429.86541836676,-8813.41230691623,-8443.83082833274,-6188.61072812377,-1389.24133801385,428.331869943518,-113.713037676217,1276.69253652456,-1162.97949884835, , , , , , , , , , , , , , , , , , , , , , , , , , , , , , , , , , , , , , , , , , , , , , , , , , , , , , , , , , , , ,
1003.6110621886,-692.569470972179,-1696.18053316078,-4521.98094146959,-8796.61982892043,-8398.82566679192,-6150.48907569662,-1345.14053702148,480.005328462315,-155.520795608212,1349.89579767469,-1194.37500206648, , , , , , , , , , , , , , , , , , , , , , , , , , , , , , , , , , , , , , , , , , , , , , , , , , , , , , , , , , , , ,
1078.14354553691,-681.708284148228,-1759.85182968514,-4601.86565961897,-8763.41797382955,-8337.4931669249,-6098.04258871837,-1294.98513204122,532.699952463068,-198.217630694343,1418.99768761103,-1220.78005691669, , , , , , , , , , , , , , , , , , , , , , , , , , , , , , , , , , , , , , , , , , , , , , , , , , , , , , , , , , , , ,
1149.53924598953,-667.892443048598,-1817.43168903813,-4668.83071295143,-8715.33987469537,-8261.7881804221,-6033.09765810068,-1239.94453066048,585.587699564485,-240.823401470468,1483.48546751383,-1242.66206604336, , , , , , , , , , , , , , , , , , , , , , , , , , , , , , , , , , , , , , , , , , , , , , , , , , , , , , , , , , , , ,
1216.98007892128,-652.203807187994,-1869.18388610928,-4722.60202080479,-8654.18469764814,-8173.87848673841,-5957.67721833697,-1181.28074726508,637.851496709075,-282.388135866645,1543.08198251528,-1260.69384664864, , , , , , , , , , , , , , , , , , , , , , , , , , , , , , , , , , , , , , , , , , , , , , , , , , , , , , , , , , , , ,
1279.86095495924,-635.807904987921,-1915.66885994716,-4763.30469289684,-8581.91662404531,-8076.05270188568,-5873.92425367371,-1120.30795702284,688.708609882105,-322.026524985659,1597.7649074532,-1275.73838246754, , , , , , , , , , , , , , , , , , , , , , , , , , , , , , , , , , , , , , , , , , , , , , , , , , , , , , , , , , , , ,
1337.80943066474,-619.919691066057,-1957.7291217308,-4791.42133052909,-8500.55650500156,-7970.62278833095,-5784.02013244642,-1058.35229612321,737.429058286868,-358.944869799341,1647.76927619777,-1288.82440639843, , , , , , , , , , , , , , , , , , , , , , , , , , , , , , , , , , , , , , , , , , , , , , , , , , , , , , , , , , , , ,
1390.68855966893,-605.768066905665,-1996.45662657459,-4807.72974976391,-8412.07457132901,-7859.82695225755,-5690.10147908718,-996.712534028447,783.349407211092,-392.460246381631,1693.57259312176,-1301.11234674013, , , , , , , , , , , , , , , , , , , , , , , , , , , , , , , , , , , , , , , , , , , , , , , , , , , , , , , , , , , , ,
1438.58381855826,-594.558733656913,-2033.14255221517,-4813.22727528927,-8318.29222304201,-7745.7385071565,-5594.17931581528,-936.622007661044,825.882828730709,-422.012542450672,1735.86318538671,-1313.85064293604, , , , , , , , , , , , , , , , , , , , , , , , , , , , , , , , , , , , , , , , , , , , , , , , , , , , , , , , , , , , ,
1481.77621752597,-587.435192158366,-2069.21140968434,-4809.04928540447,-8220.79970315842,-7630.18573822282,-5498.0642395779,-879.21235634508,864.722456748843,-447.170512683803,1775.49381360516,-1328.32330092135, , , , , , , , , , , , , , , , , , , , , , , , , , , , , , , , , , , , , , , , , , , , , , , , , , , , , , , , , , , , ,
1520.7045942857,-585.438428643248,-2106.14302292895,-4796.3892438718,-8120.89459577185,-7514.6870058292,-5403.30142786585,-825.480064386594,899.515722316541,-467.633082821225,1813.42380860732,-1345.7907257861, , , , , , , , , , , , , , , , , , , , , , , , , , , , , , , , , , , , , , , , , , , , , , , , , , , , , , , , , , , , ,
1555.92062255992,-589.466799692679,-2145.3874222526,-4776.42628628606,-8019.54392427357,-7400.40438753719,-5311.11920177869,-776.257392307495,929.276029027971,-483.226911433621,1850.65402240626,-1367.42711097264, , , , , , , , , , , , , , , , , , , , , , , , , , , , , , , , , , , , , , , , , , , , , , , , , , , , , , , , , , , , ,
1588.04028543931,-600.238518125136,-2188.27880356445,-4750.26481353366,-7917.37046777224,-7288.11809797185,-5222.39452376971,-732.189653714865,954.4850192669,-493.900883657089,1888.15954450188,-1394.25866084479, , , , , , , , , , , , , , , , , , , , , , , , , , , , , , , , , , , , , , , , , , , , , , , , , , , , , , , , , , , , ,
1617.69550760576,-618.259628719654,-2235.95513632541,-4718.88872962568,-7814.66194891944,-7178.22268030229,-5137.63796549266,-693.720727511098,974.384761775472,-499.717939443052,1926.82532196559,-1427.10738252253, , , , , , , , , , , , , , , , , , , , , , , , , , , , , , , , , , , , , , , , , , , , , , , , , , , , , , , , , , , , ,
1645.48932445882,-643.800282688507,-2289.28960714732,-4683.13118305025,-7711.40009009191,-7070.74450430043,-5056.99929337043,-661.088128974998,989.531859629927,-500.844520885155,1967.38946580307,-1466.54494491791, , , , , , , , , , , , , , , , , , , , , , , , , , , , , , , , , , , , , , , , , , , , , , , , , , , , , , , , , , , , ,
1671.95742657752,-676.881494708659,-2348.83892128618,-4643.65917073797,-7607.30529819936,-6965.37854260518,-4980.29305466515,-634.328032747508,999.864522951593,-497.537965934428,2010.39817393185,-1512.86020799742, , , , , , , , , , , , , , , , , , , , , , , , , , , , , , , , , , , , , , , , , , , , , , , , , , , , , , , , , , , , ,
1697.53824746579,-717.273566839465,-2414.81181430526,-4600.97132653125,-7501.89202225014,-6861.54095475042,-4907.04172025649,-613.289574600663,1005.16857032708,-490.132340313165,2056.17503088553,-1566.04269057236, , , , , , , , , , , , , , , , , , , , , , , , , , , , , , , , , , , , , , , , , , , , , , , , , , , , , , , , , , , , ,
1722.55306708166,-764.506240420366,-2487.05930750203,-4555.40667718497,-7394.52966567603,-6758.43293151992,-4836.53238679447,-597.656798858988,1005.7662550059,-479.023413330648,2104.80618729185,-1625.7827739612, , , , , , , , , , , , , , , , , , , , , , , , , , , , , , , , , , , , , , , , , , , , , , , , , , , , , , , , , , , , ,
1747.19692312828,-817.889645877495,-2565.08656900578,-4507.16197509325,-7284.50425545362,-6655.11069884451,-4767.88201940286,-586.975972549912,1002.09399523015,-464.653638625393,2156.14174606703,-1691.48810744164, , , , , , , , , , , , , , , , , , , , , , , , , , , , , , , , , , , , , , , , , , , , , , , , , , , , , , , , , , , , ,
1771.54042128791,-876.544431142848,-2648.08485243076,-4456.31520541751,-7171.07671919897,-6550.5565677878,-4700.10584711699,-580.685768512744,994.508162672276,-447.497995072531,2209.81263685934,-1762.3146417868, , , , , , , , , , , , , , , , , , , , , , , , , , , , , , , , , , , , , , , , , , , , , , , , , , , , , , , , , , , , ,
1795.54177578782,-939.439078254966,-2734.98085404278,-4402.85288039984,-7053.53443693887,-6443.74634340942,-4632.18377009257,-578.147996918098,983.415694403184,-428.051348766425,2265.2613149153,-1837.20996614887, , , , , , , , , , , , , , , , , , , , , , , , , , , , , , , , , , , , , , , , , , , , , , , , , , , , , , , , , , , , ,
1819.06761321649,-1005.43225362042,-2824.49986683691,-4346.69876275071,-6931.23361047924,-6333.70913436777,-4563.12035847293,-578.676997250519,969.264500236503,-406.817679798036,2321.7837400267,-1914.96606022866, , , , , , , , , , , , , , , , , , , , , , , , , , , , , , , , , , , , , , , , , , , , , , , , , , , , , , , , , , , , ,
1841.92031637086,-1073.31795175135,-2915.23826812221,-4287.74177012188,-6803.63090138611,-6219.57654440356,-4491.99506354173,-581.566339304666,952.533844852673,-384.301182309758,2378.57929224654,-1994.27810993678, , , , , , , , , , , , , , , , , , , , , , , , , , , , , , , , , , , , , , , , , , , , , , , , , , , , , , , , , , , , ,
1863.86908286851,-1141.87114237234,-3005.74022524085,-4225.86107714101,-6670.30374031018,-6100.61933531356,-4418.00050901904,-586.11203585164,933.724521791823,-360.998970248082,2434.80465405468,-2073.8056838066, , , , , , , , , , , , , , , , , , , , , , , , , , , , , , , , , , , , , , , , , , , , , , , , , , , , , , , , , , , , ,
1884.68153437491,-1209.89168513959,-3094.57321951451,-4160.94687842956,-6530.95969033469,-5976.27088080497,-4340.46808612372,-591.632020834476,913.348563323228,-337.394924617661,2489.62737694471,-2152.23245232705, , , , , , , , , , , , , , , , , , , , , , , , , , , , , , , , , , , , , , , , , , , , , , , , , , , , , , , , , , , , ,
1904.15270396245,-1276.2445454564,-3180.39724941886,-4092.91586693692,-6385.4361731198,-5846.13797753602,-4258.88141526771,-597.482190551066,892.424737744102,-313.954079253026,2542.27497669066,-2228.32089743763, , , , , , , , , , , , , , , , , , , , , , , , , , , , , , , , , , , , , , , , , , , , , , , , , , , , , , , , , , , , ,
1922.12854989228,-1339.89485926546,-3262.02340915774,-4021.72112374348,-6233.6926152413,-5710.00069469822,-4172.87940908674,-603.06979895083,870.441452988156,-291.116845313414,2592.07597952502,-2300.9591342116, , , , , , , , , , , , , , , , , , , , , , , , , , , , , , , , , , , , , , , , , , , , , , , , , , , , , , , , , , , , ,
1938.52174028645,-1399.93702367574,-3338.45876396219,-3947.35670397939,-6075.79753553538,-5567.80377233426,-4082.25151962473,-607.865330054766,848.39246591004,-269.292358305354,2638.49025212432,-2369.19789381896, , , , , , , , , , , , , , , , , , , , , , , , , , , , , , , , , , , , , , , , , , , , , , , , , , , , , , , , , , , , ,
1953.31825833485,-1455.61749597856,-3408.93575431341,-3869.85766636652,-5911.91321724783,-5419.64249159306,-3986.92813051124,-611.413981491704,827.625594950405,-248.850381178143,2681.12700632413,-2432.27662514599, , , , , , , , , , , , , , , , , , , , , , , , , , , , , , , , , , , , , , , , , , , , , , , , , , , , , , , , , , , , ,
1966.57431817434,-1506.35119326773,-3472.92551144207,-3789.29659661517,-5742.28038753161,-5265.74586505174,-3886.96887597241,-613.34748576029,806.74590231033,-230.111562453305,2719.74991480821,-2489.6383523549, , , , , , , , , , , , , , , , , , , , , , , , , , , , , , , , , , , , , , , , , , , , , , , , , , , , , , , , , , , , ,
1978.40405681203,-1551.73133141511,-3530.13538822714,-3705.77780237096,-5567.20479777425,-5106.45946195526,-3782.55098810368,-613.396259794641,786.798016789281,-213.336362698461,2754.26972251959,-2540.93335982113, , , , , , , , , , , , , , , , , , , , , , , , , , , , , , , , , , , , , , , , , , , , , , , , , , , , , , , , , , , , ,
1988.95936582353,-1591.53242726593,-3580.49179308946,-3619.43031540245,-5387.0468484064,-4942.22934580015,-3673.95880940564,-611.401073761105,768.0924736629,-198.713469278798,2784.72557945649,-2586.01211017769, , , , , , , , , , , , , , , , , , , , , , , , , , , , , , , , , , , , , , , , , , , , , , , , , , , , , , , , , , , , ,
1998.40396206504,-1625.70620343079,-3624.11016549583,-3530.40066722262,-5202.21457823817,-4773.58769453318,-3561.57463950243,-607.322840167838,750.734185875338,-186.348879317129,2811.25706378044,-2624.90818446331, , , , , , , , , , , , , , , , , , , , , , , , , , , , , , , , , , , , , , , , , , , , , , , , , , , , , , , , , , , , ,
2006.8843082726,-1654.37032989942,-3661.25463817202,-3438.84617227245,-5013.15961287193,-4601.13991913935,-3445.87033290891,-601.248881283469,734.712067279571,-176.256989186594,2834.06947322231,-2657.81248403572, , , , , , , , , , , , , , , , , , , , , , , , , , , , , , , , , , , , , , , , , , , , , , , , , , , , , , , , , , , , ,
2014.50023236446,-1677.790246521,-3692.29047888547,-3344.92921219095,-4820.37516876643,-4425.55263051365,-3327.39864083676,-593.394136499061,719.893757647067,-168.354992921731,2853.39535562497,-2685.04036270324, , , , , , , , , , , , , , , , , , , , , , , , , , , , , , , , , , , , , , , , , , , , , , , , , , , , , , , , , , , , ,
2021.27803973686,-1696.35466983476,-3717.63270957161,-3248.81279296798,-4624.39497472946,-4247.54164881047,-3206.78320545493,-584.096155711965,706.026619666925,-162.46168495105,2869.45537465424,-2706.99368970319, , , , , , , , , , , , , , , , , , , , , , , , , , , , , , , , , , , , , , , , , , , , , , , , , , , , , , , , , , , , ,
2027.1486011231,-1710.54577816094,-3737.69437928404,-3150.65744994339,-4425.79194269721,-4067.85932133368,-3084.70629234754,-573.803295442495,692.745547515911,-158.301411481077,2882.42149020357,-2724.12007872249, , , , , , , , , , , , , , , , , , , , , , , , , , , , , , , , , , , , , , , , , , , , , , , , , , , , , , , , , , , , ,
2031.93240748617,-1720.90547394492,-3752.8378814311,-3050.61940484196,-4225.17550797012,-3887.28059178262,-2961.89366376012,-563.056174634697,686.069455477094,-155.513466770625,2892.38514445864,-2736.87167768801, , , , , , , , , , , , , , , , , , , , , , , , , , , , , , , , , , , , , , , , , , , , , , , , , , , , , , , , , , , , ,
2035.33299769508,-1727.99948230626,-3763.33248000134,-2948.84975439721,-4023.18673904935,-3706.58748167948,-2839.0963608739,-552.463044208092,672.494468904066,-153.666757694414,2899.33273884821,-2745.6659811538, , , , , , , , , , , , , , , , , , , , , , , , , , , , , , , , , , , , , , , , , , , , , , , , , , , , , , , , , , , , ,
2036.93953955594,-1732.38127554086,-3769.3208150968,-2845.49443070602,-3820.49063284791,-3526.55192996852,-2717.06955373622,-542.670211262744,657.911316859931,-152.279132007544,2903.13017732637,-2750.85104531883, , , , , , , , , , , , , , , , , , , , , , , , , , , , , , , , , , , , , , , , , , , , , , , , , , , , , , , , , , , , ,
2036.23869717252,-1734.55785978498,-3770.7965569575,-2740.69473594019,-3617.76548285614,-3347.9173180432,-2596.54903359415,-534.329027393782,641.707577749504,-150.840418693771,2903.51762706501,-2752.67720837124, , , , , , , , , , , , , , , , , , , , , , , , , , , , , , , , , , , , , , , , , , , , , , , , , , , , , , , , , , , , ,
2032.63525682724,-1734.95932086197,-3767.59457768921,-2634.5883747781,-3415.68974484987,-3171.37942110984,-2478.226332582,-528.061220787585,624.343118634457,-148.837967982634,2900.11491725822,-2751.27694927559, , , , , , , , , , , , , , , , , , , , , , , , , , , , , , , , , , , , , , , , , , , , , , , , , , , , , , , , , , , , ,
2025.4803383076,-1733.91373963769,-3759.39407794529,-2527.31099716762,-3214.92725085404,-2997.56783187476,-2362.72378256373,-524.424525736968,609.806481748488,-145.783299334951,2892.43720812644,-2746.65390879149, , , , , , , , , , , , , , , , , , , , , , , , , , , , , , , , , , , , , , , , , , , , , , , , , , , , , , , , , , , , ,
2014.10543294523,-1731.62870392152,-3745.73413686674,-2418.99824525026,-3016.11179563585,-2827.02898338608,-2250.57097747173,-523.880602913291,588.49600558241,-141.238364511855,2879.91978490599,-2738.68142039413, , , , , , , , , , , , , , , , , , , , , , , , , , , , , , , , , , , , , , , , , , , , , , , , , , , , , , , , , , , , ,
1997.86003716257,-1728.18020290432,-3726.04024006689,-2309.78816768016,-2819.83203286211,-2660.21174023218,-2142.18402740128,-526.767088902662,562.013126201784,-134.839917129124,2861.95013861473,-2727.11022148561, , , , , , , , , , , , , , , , , , , , , , , , , , , , , , , , , , , , , , , , , , , , , , , , , , , , , , , , , , , , ,
1976.15034982335,-1723.50920623798,-3699.65955606133,-2199.82369876979,-2626.61738928612,-2497.45621734388,-2037.84871525587,-533.275243223631,530.006960435467,-126.320571792687,2837.90495294234,-2711.58438114965, , , , , , , , , , , , , , , , , , , , , , , , , , , , , , , , , , , , , , , , , , , , , , , , , , , , , , , , , , , , ,
1948.47640091261,-1717.42572509536,-3665.90212600796,-2089.25479656293,-2436.92549200772,-2338.98616906685,-1937.7083144848,-543.434169591076,503.430140698965,-115.525337908625,2807.18926346029,-2691.66392555166, , , , , , , , , , , , , , , , , , , , , , , , , , , , , , , , , , , , , , , , , , , , , , , , , , , , , , , , , , , , ,
1914.46504368953,-1709.61970742572,-3624.08475111525,-1978.23984188478,-2251.1315132064,-2184.90511319742,-1841.75657508434,-557.102174298914,475.692425108343,-102.422668131904,2769.27489740239,-2666.85222927049, , , , , , , , , , , , , , , , , , , , , , , , , , , , , , , , , , , , , , , , , , , , , , , , , , , , , , , , , , , , ,
1873.8964211818,-1699.6778442639,-3573.57426544569,-1866.94600573506,-2069.5198839525,-2035.19636978053,-1749.83633067449,-573.965634520209,445.21867662729,-87.1092884589509,2723.73534331375,-2636.62605485479, , , , , , , , , , , , , , , , , , , , , , , , , , , , , , , , , , , , , , , , , , , , , , , , , , , , , , , , , , , , ,
1826.72181988561,-1687.10528313271,-3513.82710301832,-1755.54845241457,-1892.27893575422,-1889.72730344643,-1661.64423686123,-593.545719086389,399.4761496481,-69.8082683764484,2670.27446145196,-2600.46619307552, , , , , , , , , , , , , , , , , , , , , , , , , , , , , , , , , , , , , , , , , , , , , , , , , , , , , , , , , , , , ,
1773.07131639477,-1671.35125741038,-3444.42257380515,-1644.22841540529,-1719.49906255004,-1748.25806710353,-1576.74210688622,-615.213203975141,349.551257561218,-50.8600294921924,2608.74694509996,-2557.88691560776, , , , , , , , , , , , , , , , , , , , , , , , , , , , , , , , , , , , , , , , , , , , , , , , , , , , , , , , , , , , ,
1713.25034960496,-1651.83762668199,-3365.08797628695,-1533.17031886424,-1551.174845211,-1610.45491702294,-1494.57499400184,-638.211265537468,301.697724009322,-30.7063614614823,2539.16916294596,-2508.46280148447, , , , , , , , , , , , , , , , , , , , , , , , , , , , , , , , , , , , , , , , , , , , , , , , , , , , , , , , , , , , ,
1647.72526651135,-1627.98924949217,-3275.71451600352,-1422.55818684929,-1387.21122701776,-1475.90771985442,-1414.49557464857,-661.685514060291,256.466522188463,-9.86800850959031,2461.71989125744,-2451.85188274785, , , , , , , , , , , , , , , , , , , , , , , , , , , , , , , , , , , , , , , , , , , , , , , , , , , , , , , , , , , , ,
1577.098862431,-1599.26501811192,-3176.36388054292,-1312.57157716213,-1227.43335621391,-1344.15073243542,-1335.79365756188,-684.719811041897,212.549641413109,11.0830778404606,2376.73137148696,-2387.81444932742, , , , , , , , , , , , , , , , , , , , , , , , , , , , , , , , , , , , , , , , , , , , , , , , , , , , , , , , , , , , ,
1502.07780255293,-1565.18831892655,-3067.26612147948,-1203.38121483633,-1071.59925378902,-1214.68526430131,-1257.72898632043,-706.375807194844,158.518557136272,31.5552581868124,2284.67196201621,-2316.22722020302, , , , , , , , , , , , , , , , , , , , , , , , , , , , , , , , , , , , , , , , , , , , , , , , , , , , , , , , , , , , ,
1423.43445041805,-1525.37565180875,-2948.8101022268,-1095.14442262422,-919.414147088196,-1087.00256165762,-1179.56508931228,-725.733788226623,105.546769041184,50.9706006953518,2186.12227632243,-2237.09287701778, , , , , , , , , , , , , , , , , , , , , , , , , , , , , , , , , , , , , , , , , , , , , , , , , , , , , , , , , , , , ,
1341.96601211181,-1479.56213899599,-2821.5281511078,-988.000413973635,-770.545219785516,-960.605257137253,-1100.60184547207,-741.932342806252,54.443551323298,68.7980634420869,2081.74708160981,-2150.5451450519, , , , , , , , , , , , , , , , , , , , , , , , , , , , , , , , , , , , , , , , , , , , , , , , , , , , , , , , , , , , ,
1258.45405959233,-1427.62268664537,-2686.0767462377,-882.065580160374,-624.635690556226,-835.026012593515,-1020.20466384351,-754.204515122548,5.94190652413899,84.5843135265173,1972.26540291502,-2056.84971644153, , , , , , , , , , , , , , , , , , , , , , , , , , , , , , , , , , , , , , , , , , , , , , , , , , , , , , , , , , , , ,
1173.6274273119,-1369.58766066554,-2543.21508797744,-777.429059843179,-481.317495375033,-709.842466126883,-937.828644410638,-761.908421972993,-39.3324853182797,97.98011667682,1858.42125764467,-1956.40137432149, , , , , , , , , , , , , , , , , , , , , , , , , , , , , , , , , , , , , , , , , , , , , , , , , , , , , , , , , , , , ,
1088.13115976262,-1305.65212153066,-2393.78328129328,-674.149054880804,-340.222306907088,-584.688162095044,-853.036696718692,-764.550774386218,-80.8861117578962,108.760480884024,1740.95722052795,-1849.71770141197, , , , , , , , , , , , , , , , , , , , , , , , , , , , , , , , , , , , , , , , , , , , , , , , , , , , , , , , , , , , ,
1002.50364123058,-1236.17792569766,-2238.68156692824,-572.250478733009,-200.991072839402,-459.259690713329,-765.511245520766,-761.802310774041,-118.374896813662,116.837142233537,1620.59260407941,-1737.42974631295, , , , , , , , , , , , , , , , , , , , , , , , , , , , , , , , , , , , , , , , , , , , , , , , , , , , , , , , , , , , ,
917.1633488339,-1161.68835027087,-2078.85169910477,-471.724575406989,-63.282630719116,-333.3207398904,-675.059783827671,-753.504777629189,-151.613060429355,122.262500718486,1498.00752396934,-1620.27002468782, , , , , , , , , , , , , , , , , , , , , , , , , , , , , , , , , , , , , , , , , , , , , , , , , , , , , , , , , , , , ,
832.405929338643,-1082.85535856958,-1915.26128790822,-372.531145510343,73.2177650643705,-206.704148564962,-581.61511090887,-739.669749946767,-180.573337900649,125.224714615468,1373.83360862343,-1499.0583232389, , , , , , , , , , , , , , , , , , , , , , , , , , , , , , , , , , , , , , , , , , , , , , , , , , , , , , , , , , , , ,
747.359826495161,-999.936731476757,-1747.29655797192,-273.772691349175,211.693811610955,-76.7625427501011,-480.967128601547,-720.017965074115,-205.378949005754,126.288452490798,1247.32819223354,-1373.61664472434, , , , , , , , , , , , , , , , , , , , , , , , , , , , , , , , , , , , , , , , , , , , , , , , , , , , , , , , , , , , ,
660.075157739213,-913.114171028885,-1573.1893287681,-175.002670453264,346.624132118932,61.0438795413529,-381.310707245444,-695.762097813933,-226.288279574558,126.519506644836,1116.63224325366,-1243.15174989849, , , , , , , , , , , , , , , , , , , , , , , , , , , , , , , , , , , , , , , , , , , , , , , , , , , , , , , , , , , , ,
577.291075120319,-826.224189212437,-1403.51526433276,-77.2319582749142,483.877392250109,193.138645972841,-275.964616837222,-665.256282082295,-243.673686378465,124.466557046059,990.403169726539,-1114.8697267726, , , , , , , , , , , , , , , , , , , , , , , , , , , , , , , , , , , , , , , , , , , , , , , , , , , , , , , , , , , , ,
493.729572138076,-736.922686637088,-1230.65225877517,18.5077041881416,620.826673513903,330.777723362632,-170.892312388543,-632.263242324271,-257.996101676425,121.596557249506,862.190915456622,-983.787472706126, , , , , , , , , , , , , , , , , , , , , , , , , , , , , , , , , , , , , , , , , , , , , , , , , , , , , , , , , , , , ,
412.746024065254,-649.943200466287,-1062.68922453154,113.228560833223,757.42973179614,468.664838292315,-63.9249701428057,-595.718227965623,-269.777175141511,118.598588200516,737.717624298399,-856.316212498914, , , , , , , , , , , , , , , , , , , , , , , , , , , , , , , , , , , , , , , , , , , , , , , , , , , , , , , , , , , , ,
332.498529371062,-562.810278320592,-895.308807691656,208.09044345003,893.591038835935,601.0394211539,42.5509047148663,-556.248892139331,-279.570567786321,115.155874474765,613.90366853136,-729.059543006123, , , , , , , , , , , , , , , , , , , , , , , , , , , , , , , , , , , , , , , , , , , , , , , , , , , , , , , , , , , , ,
252.439127275984,-479.621238393107,-732.060365669093,300.040472013993,1027.60689160551,730.715978451158,150.783254187645,-514.668714837466,-287.933775526453,113.591055558562,492.249746472539,-605.840802031099, , , , , , , , , , , , , , , , , , , , , , , , , , , , , , , , , , , , , , , , , , , , , , , , , , , , , , , , , , , , ,
173.686965249245,-399.124644765343,-572.811610014589,392.371076176567,1160.1968483484,868.974977785665,261.155173872966,-472.000496779355,-295.401616376019,112.718839758049,373.249287631918,-485.968127389965, , , , , , , , , , , , , , , , , , , , , , , , , , , , , , , , , , , , , , , , , , , , , , , , , , , , , , , , , , , , ,
96.1011283050738,-323.353000106892,-419.454128411967,482.438762555871,1292.34518519863,1002.16869917583,367.281126393747,-428.890225382683,-302.462356055644,113.625935900909,257.777628358521,-371.403564259428, , , , , , , , , , , , , , , , , , , , , , , , , , , , , , , , , , , , , , , , , , , , , , , , , , , , , , , , , , , , ,
19.4041940261897,-252.377464717213,-271.781658743404,570.938222343618,1420.45304131181,1127.51919321388,471.923837125718,-386.600050237384,-309.537394113298,116.486635345512,145.592926384798,-262.079561730308, , , , , , , , , , , , , , , , , , , , , , , , , , , , , , , , , , , , , , , , , , , , , , , , , , , , , , , , , , , , ,
-55.159689714967,-187.021076903581,-131.861387188616,658.22551007092,1547.04169361632,1251.82433884633,574.478134364755,-344.867901105581,-316.965420714337,121.090383309274,38.3508487368251,-159.441232046098, , , , , , , , , , , , , , , , , , , , , , , , , , , , , , , , , , , , , , , , , , , , , , , , , , , , , , , , , , , , ,
-127.39482358829,-127.483396128942,-0.0885725406535016,742.880006751106,1669.25508456978,1370.20991103957,674.036423067393,-304.963930849027,-324.991863742601,127.439109858616,-63.6531255238174,-63.7859843347969, , , , , , , , , , , , , , , , , , , , , , , , , , , , , , , , , , , , , , , , , , , , , , , , , , , , , , , , , , , , ,
-199.031795114535,-74.0333999664782,124.998395148055,824.416308725763,1789.26477482885,1489.38917936356,771.815820556585,-267.306087033984,-333.76418815314,136.532597540506,-162.015095131294,25.4824975907893, , , , , , , , , , , , , , , , , , , , , , , , , , , , , , , , , , , , , , , , , , , , , , , , , , , , , , , , , , , , ,
-264.883677014818,-26.7841931303326,238.099483884484,900.829866140698,1903.86799103056,1598.98604752888,861.425202160711,-232.882715318622,-343.333197344235,145.833935072575,-251.491580449651,105.657645377077, , , , , , , , , , , , , , , , , , , , , , , , , , , , , , , , , , , , , , , , , , , , , , , , , , , , , , , , , , , , ,
-326.951599845654,14.3044981023675,341.25609794802,974.706225411569,2009.3735669306,1702.50156577506,947.487561277111,-201.265212187796,-353.660017102082,156.323550871643,-334.103848896836,177.780298025195, , , , , , , , , , , , , , , , , , , , , , , , , , , , , , , , , , , , , , , , , , , , , , , , , , , , , , , , , , , , ,
-386.42362086039,49.418097407293,435.841718267681,1044.15216620241,2108.14187682082,1797.20474109556,1025.91666758003,-172.807152363115,-364.628014128728,168.502761726548,-411.132669564035,242.629907837488, , , , , , , , , , , , , , , , , , , , , , , , , , , , , , , , , , , , , , , , , , , , , , , , , , , , , , , , , , , , ,
-439.80080633927,78.873434218831,518.6742405581,1108.74948460758,2203.60726548624,1884.57222272547,1099.16344595194,-148.113242089564,-376.058558458433,180.46368606022,-479.237523448685,298.773837388466, , , , , , , , , , , , , , , , , , , , , , , , , , , , , , , , , , , , , , , , , , , , , , , , , , , , , , , , , , , , ,
-488.032439940055,103.100098022952,591.132537963005,1168.25526826943,2291.7920852276,1964.31857633398,1167.77316609527,-126.738974163618,-387.729297868188,192.466170958551,-539.582488951529,347.116317992979, , , , , , , , , , , , , , , , , , , , , , , , , , , , , , , , , , , , , , , , , , , , , , , , , , , , , , , , , , , , ,
-530.333359375572,122.617874491336,652.951233866906,1222.34297229146,2372.54278640736,2036.35158837138,1227.51802744732,-108.953754782746,-399.393494655751,203.857742442118,-591.642296621239,387.784554179122, , , , , , , , , , , , , , , , , , , , , , , , , , , , , , , , , , , , , , , , , , , , , , , , , , , , , , , , , , , , ,
-568.733847997908,138.011516268609,706.745364266515,1270.16968656216,2442.91919409604,2100.77590825455,1280.54020681443,-94.2892391672138,-410.799000969741,215.36116586465,-637.739606132211,422.378440267563, , , , , , , , , , , , , , , , , , , , , , , , , , , , , , , , , , , , , , , , , , , , , , , , , , , , , , , , , , , , ,
-601.038436296889,149.904244257567,750.942680554455,1314.02559120108,2508.11064154886,2157.88494397299,1327.47044668133,-81.7712767978736,-421.705612113036,225.567096019661,-675.990558425671,450.423462406012, , , , , , , , , , , , , , , , , , , , , , , , , , , , , , , , , , , , , , , , , , , , , , , , , , , , , , , , , , , , ,
-626.565002983732,158.931408118732,785.496411102462,1352.9328256717,2565.21847238362,2208.14205054951,1368.93461912731,-71.0876690852902,-431.899804741317,233.8167974325,-706.030707043096,472.213909610598, , , , , , , , , , , , , , , , , , , , , , , , , , , , , , , , , , , , , , , , , , , , , , , , , , , , , , , , , , , , ,
-646.936235014389,165.715673300917,812.651908315304,1387.20414694822,2616.62170168047,2252.15294985467,1402.83170160658,-63.7720459077837,-441.206191692319,240.610280856736,-729.794071664846,489.183790808111, , , , , , , , , , , , , , , , , , , , , , , , , , , , , , , , , , , , , , , , , , , , , , , , , , , , , , , , , , , , ,
-663.888050930322,170.844949422075,834.733000352396,1417.23325364886,2660.48586220119,2290.63198002524,1432.75112418076,-53.839304265022,-449.495356413405,246.521550754123,-749.310525641358,502.788974887236, , , , , , , , , , , , , , , , , , , , , , , , , , , , , , , , , , , , , , , , , , , , , , , , , , , , , , , , , , , , ,
-676.247313877348,174.854044975556,851.101358852903,1443.04942978175,2700.95622283464,2324.36510398351,1461.46415396482,-48.5034115820454,-456.688024091759,250.696634450896,-763.674336365125,512.97770191423, , , , , , , , , , , , , , , , , , , , , , , , , , , , , , , , , , , , , , , , , , , , , , , , , , , , , , , , , , , , ,
-685.751800888102,178.210756801326,863.962557689427,1464.64615551754,2738.23454367206,2354.17259147302,1488.42082932783,-43.7359659882438,-462.755761445309,253.770522043388,-774.857179288764,521.086657245377, , , , , , , , , , , , , , , , , , , , , , , , , , , , , , , , , , , , , , , , , , , , , , , , , , , , , , , , , , , , ,
-690.061277800535,181.306804945454,871.368082745987,1484.75609339381,2771.72222341462,2380.87398363422,1510.31012863677,-41.2007082072892,-467.718573927204,254.37723642754,-780.71468027326,526.337443845721, , , , , , , , , , , , , , , , , , , , , , , , , , , , , , , , , , , , , , , , , , , , , , , , , , , , , , , , , , , , ,
-692.049276850956,184.453711819549,876.502988670503,1502.64642664747,2802.96847281062,2405.25744794571,1529.45900015183,-38.6655416827115,-471.63989742675,253.797782515703,-784.276132760729,530.478350245027, , , , , , , , , , , , , , , , , , , , , , , , , , , , , , , , , , , , , , , , , , , , , , , , , , , , , , , , , , , , ,
-691.497708315604,187.883401524749,879.381109840351,1518.85054657596,2832.91025055946,2428.05502373995,1550.18130752884,-34.8757568304636,-474.619564852539,251.807153395427,-785.439409077977,533.632255682551, , , , , , , , , , , , , , , , , , , , , , , , , , , , , , , , , , , , , , , , , , , , , , , , , , , , , , , , , , , , ,
-692.344132221643,191.752977040505,884.097109262147,1533.70888046568,2860.46123033093,2449.92460438928,1569.87727232045,-27.5133143455544,-476.785366118755,250.295577590569,-788.220620741894,537.925043151327, , , , , , , , , , , , , , , , , , , , , , , , , , , , , , , , , , , , , , , , , , , , , , , , , , , , , , , , , , , , ,
-690.076061745487,196.152854259724,886.22891600521,1546.09559350272,2889.71954037432,2471.43884249231,1586.24464478403,-23.2013828186292,-478.283819700854,246.961603742881,-788.152488875348,541.190885132468, , , , , , , , , , , , , , , , , , , , , , , , , , , , , , , , , , , , , , , , , , , , , , , , , , , , , , , , , , , , ,
-688.298411155087,201.117236168007,889.415647323093,1560.13767127513,2917.25121044225,2493.08054815226,1601.62406415358,-18.7866786685567,-479.270747695466,243.59058749354,-788.85702923909,545.266441745551, , , , , , , , , , , , , , , , , , , , , , , , , , , , , , , , , , , , , , , , , , , , , , , , , , , , , , , , , , , , ,
-685.896364309008,206.635832614094,892.532196923101,1574.38202455511,2943.33534269911,2515.24364307037,1616.75217672434,-14.1787324874282,-479.081355373833,239.630265847457,-789.214280616054,549.584014768598, , , , , , , , , , , , , , , , , , , , , , , , , , , , , , , , , , , , , , , , , , , , , , , , , , , , , , , , , , , , ,
-684.365336831615,212.665777927943,897.031114759556,1589.21688771244,2970.08376184114,2538.23839564223,1636.49290203389,-8.94302150953166,-477.655322946441,235.849779451836,-790.698225795585,554.84844634375, , , , , , , , , , , , , , , , , , , , , , , , , , , , , , , , , , , , , , , , , , , , , , , , , , , , , , , , , , , , ,
-683.901336477656,219.142846727775,903.04418320543,1603.72139629485,2997.76029674824,2562.29952304888,1652.495747458,-3.48607112566759,-476.967635805522,232.37924487494,-793.472759841542,561.093514966603, , , , , , , , , , , , , , , , , , , , , , , , , , , , , , , , , , , , , , , , , , , , , , , , , , , , , , , , , , , , ,
-683.845928885882,225.991284395944,909.837213281825,1619.15222217436,3026.57080365604,2587.59578788078,1669.05225924552,3.12959394644378,-477.355284814375,228.927322244969,-796.841571083853,567.914248838885, , , , , , , , , , , , , , , , , , , , , , , , , , , , , , , , , , , , , , , , , , , , , , , , , , , , , , , , , , , , ,
-687.073894328459,233.131823219743,920.2057175482,1634.51574700751,3056.67116934147,2614.23988785352,1686.84163116625,9.90122126027467,-476.993244949162,226.971035554358,-803.639805938328,576.668770383972, , , , , , , , , , , , , , , , , , , , , , , , , , , , , , , , , , , , , , , , , , , , , , , , , , , , , , , , , , , , ,
-690.377871090634,240.487714270869,930.865585361501,1651.22855541018,3088.1741172044,2642.29768300501,1705.98921896996,17.278266140961,-475.683290898708,224.945078409882,-810.621728226067,585.676649816185, , , , , , , , , , , , , , , , , , , , , , , , , , , , , , , , , , , , , , , , , , , , , , , , , , , , , , , , , , , , ,
-695.508496598168,247.988829857593,943.497326455759,1669.38204034422,3121.15427106823,2671.79608868063,1726.57866244907,25.577800555546,-475.463129318914,223.759833370287,-819.502911526963,595.743078156677, , , , , , , , , , , , , , , , , , , , , , , , , , , , , , , , , , , , , , , , , , , , , , , , , , , , , , , , , , , , ,
-701.801285670571,255.574053156009,957.375338826579,1689.01332193537,3155.6512699354,2702.72926406643,1748.65135299448,33.6724555337329,-476.619160690531,223.113616257281,-829.588312248574,606.474695991295, , , , , , , , , , , , , , , , , , , , , , , , , , , , , , , , , , , , , , , , , , , , , , , , , , , , , , , , , , , , ,
-710.07278424615,263.192261703027,973.265045949175,1710.10648246056,3191.67105554279,2735.06302997716,1772.20562385115,42.1081377237021,-477.828539165301,223.440261271561,-841.668915097662,618.228653826102, , , , , , , , , , , , , , , , , , , , , , , , , , , , , , , , , , , , , , , , , , , , , , , , , , , , , , , , , , , , ,
-719.344856278806,270.802239696122,990.147095974926,1732.59489282371,3229.185756946,2768.73773912922,1797.19627237535,52.779247301219,-479.387800367372,224.271308291342,-854.745976126866,630.474667835525, , , , , , , , , , , , , , , , , , , , , , , , , , , , , , , , , , , , , , , , , , , , , , , , , , , , , , , , , , , , ,
-729.639671183515,278.371843563721,1008.01151474723,1756.36493512627,3268.13284520881,2803.67006802305,1823.53503747362,61.6304747507418,-480.240661149902,225.633913809897,-868.825592965374,643.191679155478, , , , , , , , , , , , , , , , , , , , , , , , , , , , , , , , , , , , , , , , , , , , , , , , , , , , , , , , , , , , ,
-741.042147765667,285.876721345324,1026.91886911099,1781.26136582298,3308.4143821772,2839.75435454234,1851.0925942268,70.8086141069315,-480.700764771561,227.582713210171,-883.980508438328,656.397795228158, , , , , , , , , , , , , , , , , , , , , , , , , , , , , , , , , , , , , , , , , , , , , , , , , , , , , , , , , , , , ,
-753.297876784239,293.298863199203,1046.59673998344,1807.09441389701,3349.8971957048,2876.86412638155,1879.70248497061,80.5434537477127,-481.476350328842,229.999506792518,-899.947308383839,669.947801591322, , , , , , , , , , , , , , , , , , , , , , , , , , , , , , , , , , , , , , , , , , , , , , , , , , , , , , , , , , , , ,
-766.125692289115,300.625235556414,1066.75092784553,1833.64848364816,3392.4146665395,2914.85435229717,1909.16718721075,89.7888889254269,-482.288409795522,232.75022836635,-916.438310067321,683.688081700972, , , , , , , , , , , , , , , , , , , , , , , , , , , , , , , , , , , , , , , , , , , , , , , , , , , , , , , , , , , , ,
-779.230844527394,307.846711723133,1087.07755625053,1860.69208327127,3435.77054702147,2953.56475275769,1939.26625465309,99.136503144202,-483.963855990239,235.692066402131,-933.154200388959,697.46213398683, , , , , , , , , , , , , , , , , , , , , , , , , , , , , , , , , , , , , , , , , , , , , , , , , , , , , , , , , , , , ,
-792.318900107494,314.957444380799,1107.27634448829,1887.98839783898,3479.74492248811,2992.82429574485,1969.7662014187,108.561137785134,-483.874317363546,238.680727863347,-949.797622297892,711.116894434546, , , , , , , , , , , , , , , , , , , , , , , , , , , , , , , , , , , , , , , , , , , , , , , , , , , , , , , , , , , , ,
-805.109486617631,321.954731021305,1127.06421763894,1915.30581995202,3524.10214106183,3032.45681454338,2000.43156669775,118.042142259056,-482.378720789546,241.577377798163,-966.086852128283,724.509474330121, , , , , , , , , , , , , , , , , , , , , , , , , , , , , , , , , , , , , , , , , , , , , , , , , , , , , , , , , , , , ,
-817.348958923756,328.839320011731,1146.18827893549,1942.42775449503,3568.60030650985,3072.28751841248,2031.03642296424,127.564055697816,-483.565278483308,244.254819456012,-981.76861892962,737.513799473609, , , , , , , , , , , , , , , , , , , , , , , , , , , , , , , , , , , , , , , , , , , , , , , , , , , , , , , , , , , , ,
-828.821123395655,335.616018395845,1164.4371417915,1969.16110403808,3613.00175056919,3112.15001966704,2061.37549799061,137.11737347621,-484.580896850799,246.602552499905,-996.629132593576,750.026580093673, , , , , , , , , , , , , , , , , , , , , , , , , , , , , , , , , , , , , , , , , , , , , , , , , , , , , , , , , , , , ,
-839.355315423373,342.294411228185,1181.64972665156,1995.34298504863,3657.08377289977,3151.89338641949,2091.27408774323,146.699194809374,-482.483575943784,248.530452097594,-1010.50252103746,761.972068939872, , , , , , , , , , , , , , , , , , , , , , , , , , , , , , , , , , , , , , , , , , , , , , , , , , , , , , , , , , , , ,
-848.831378139471,348.889491917846,1197.72087005732,2020.84539315593,3700.64887011426,3191.38867253412,2120.5960462887,156.313546287643,-483.160023354692,249.970943110812,-1023.27612409839,773.305180987582, , , , , , , , , , , , , , , , , , , , , , , , , , , , , , , , , , , , , , , , , , , , , , , , , , , , , , , , , , , , ,
-857.181402053616,355.422029439036,1212.60343149265,2045.5777070399,3743.53368328873,3230.53438489851,2149.24932916489,165.971215153809,-483.435506823623,250.879686307289,-1034.89241677313,784.012730465844, , , , , , , , , , , , , , , , , , , , , , , , , , , , , , , , , , , , , , , , , , , , , , , , , , , , , , , , , , , , ,
-864.388397891914,361.918549888541,1226.30694778045,2069.4870782295,3785.61597488036,3269.26041448597,2177.18880054164,175.688995360807,-483.835172429213,251.234924001687,-1045.34767283618,794.112748834498, , , , , , , , , , , , , , , , , , , , , , , , , , , , , , , , , , , , , , , , , , , , , , , , , , , , , , , , , , , , ,
-870.482331586177,368.410872387932,1238.89320397411,2092.55688531105,3826.81908669402,3307.53006856916,2204.41625202838,185.488333595298,-484.196558042617,251.035729599122,-1054.68776778014,803.65203818102, , , , , , , , , , , , , , , , , , , , , , , , , , , , , , , , , , , , , , , , , , , , , , , , , , , , , , , , , , , , ,
-875.534118954356,374.935203457161,1250.46932241152,2114.80352989881,3867.1135144762,3345.33998839192,2230.97779205385,195.393447567055,-483.065900222757,250.299457748597,-1063.00172068294,812.702262934339, , , , , , , , , , , , , , , , , , , , , , , , , , , , , , , , , , , , , , , , , , , , , , , , , , , , , , , , , , , , ,
-879.648253772635,381.530856649858,1261.17911042249,2136.27191922441,3906.51544992763,3382.71791141744,2256.95893276834,205.429067383327,-483.377868778904,249.058698561388,-1070.41368209756,821.354983536176, , , , , , , , , , , , , , , , , , , , , , , , , , , , , , , , , , , , , , , , , , , , , , , , , , , , , , , , , , , , ,
-882.954738259423,388.238719660038,1271.19345791946,2157.03001957122,3945.08237489824,3419.71842237267,2282.4778211459,215.618017981262,-482.099412447362,247.358009299693,-1077.07409808944,829.716088789749, , , , , , , , , , , , , , , , , , , , , , , , , , , , , , , , , , , , , , , , , , , , , , , , , , , , , , , , , , , , ,
-885.600914235288,395.099627542867,1280.70054177815,2177.1628770279,3982.90602594682,3456.4170074362,2307.67713512708,225.978906548618,-481.975233688763,245.25064334621,-1083.15072800672,837.900084660511, , , , , , , , , , , , , , , , , , , , , , , , , , , , , , , , , , , , , , , , , , , , , , , , , , , , , , , , , , , , ,
-887.743671521474,402.152808151167,1289.89647967264,2196.76648686949,4020.10325535185,3492.90286095567,2332.71520180286,236.524189923013,-479.718095161831,242.795431685153,-1088.82007559706,846.024643911904, , , , , , , , , , , , , , , , , , , , , , , , , , , , , , , , , , , , , , , , , , , , , , , , , , , , , , , , , , , , ,
-889.542357636036,409.434542450964,1298.976900087,2215.94185207137,4056.80547545722,3529.27098559107,2357.75690151416,247.258866445471,-480.215251578845,240.053907592536,-1094.25962886152,854.205721268982, , , , , , , , , , , , , , , , , , , , , , , , , , , , , , , , , , , , , , , , , , , , , , , , , , , , , , , , , , , , ,
-891.152555895509,416.977134548783,1308.12969044429,2234.78950907316,4093.14747519863,3565.61417219296,2382.96490368235,258.179970414355,-479.901292751305,237.087710673363,-1099.6411231699,862.553412496537, , , , , , , , , , , , , , , , , , , , , , , , , , , , , , , , , , , , , , , , , , , , , , , , , , , , , , , , , , , , ,
