-51.781842275192,-1.50178254282774,50.2800597323642,46.3663936085631,39.0531758141569,0.223277025110872,-50.506755774737,-69.6395099542664,-30.7940734499804,26.6418124090099,-51.0309510037781,24.3891385947682,568,573,537,537,549,537,539,624,537,0,624,539,827,723,692,649,661,746,773,785,749,0,823,735,970,943,896,901,931,981,973,982,951,0,967,889,1304,1252,1200,1240,1220,1199,1207,1258,1260,0,1309,1242,1040,1046,1009,1009,1021,1009,1011,1023,1009,0,1023,1011,
-51.781842275192,-1.50178254282774,50.2800597323642,46.3663936085631,39.0531758141569,0.223277025110872,-50.506755774737,-69.6395099542664,-30.7940734499804,26.6418124090099,-51.0309510037781,24.3891385947682,1592,1598,1562,1562,1574,1562,1562,1650,1562, ,1650,1562,839,755,767,774,787,787,787,789,758, ,837,768,1006,968,1008,1009,986,1002,1002,1002,969, ,1007,963,1305,1308,1206,1302,1310,1305,1301,1303,1271, ,1310,1323,2064,2071,2034,2034,2046,2034,2034,2049,2034, ,2049,2034,
-51.781842275192,-1.50178254282774,50.2800597323642,46.3663936085631,39.0531758141569,0.223277025110872,-50.506755774737,-69.6395099542664,-30.7940734499804,26.6418124090099,-51.0309510037781,24.3891385947682,2602,2610,2574,2574,2586,2574,2713,2631,2574, ,2631,2713,862,808,793,791,801,800,827,828,796, ,864,798,1043,1020,1047,1035,1020,1022,1039,1040,1008, ,1045,1010,1470,2246,1323,1404,1384,1394,1371,1316,1278, ,1472,1438,3061,3069,3033,3033,3047,3033,3034,3050,3033, ,3050,3034,
-51.781842275192,-12.1239365086872,39.6579057665047,46.3663936085631,39.0531758141569,0.223277025110872,-50.506755774737,-69.6395099542664,-30.7940734499804,31.9528893919396,-45.7198740208484,13.7669846289088,3519,3673,3490,3490,3504,3490,3491,3496,3490, ,3496,3491,1606,1774,1754,1690,1766,1775,1786,1808,1860, ,1854,1769,1072,1044,1069,1085,1044,1061,1064,1065,1034, ,1075,1051,2179,2263,2225,2115,2245,2257,2221,2360,2361, ,2360,2201,3897,3905,3868,3868,3882,3868,3868,3884,3868, ,3884,3868,
-51.781842275192,-50.0848996423854,1.69694263280656,46.3663936085631,-26.5747642713796,-43.9435056776043,-50.506755774737,-69.6395099542664,-30.7940734499804,50.9333709587887,-26.7393924539993,-24.1939785047894,4522,4528,4492,4492,4504,4492,4627,4499,4492, ,4499,4627,1746,1787,1792,1808,1812,1811,1817,1813,1870, ,1867,1788,1152,1086,1921,1935,1097,1111,1094,1090,1058, ,1095,1088,2180,2277,2256,2331,2335,2330,2285,2459,2440, ,2365,2262,5066,5071,5035,5035,5045,5035,5037,5048,5035, ,5048,5037,
-51.781842275192,-61.5755986832876,-9.79375640809564,46.3663936085631,-60.4313806367099,-153.862957199307,-137.206113704579,-131.216368464204,-30.7940734499804,56.6787204792398,-20.9940429335482,-35.6846775456916,5606,5612,5576,5576,5588,5576,5578,5665,5576, ,5665,5578,1801,1833,1821,1823,1833,1825,1853,1852,1917, ,1889,1821,1973,1912,2033,2042,1960,1994,1970,2007,2007, ,1992,1959,2441,3289,2375,2403,2409,2417,2380,3285,3283, ,2368,2322,6067,6074,6038,6038,6051,6038,6040,6054,6038, ,6054,6040,
-51.781842275192,-75.8158861070412,-24.0340438318493,46.3663936085631,-68.9241624933872,-198.990954770229,-247.227321928281,-179.074054060719,-68.2779391489079,63.7988641911166,-13.8738992216714,-49.9249649694452,6604,6612,6575,6575,6589,6575,6576,6661,6575, ,6661,6576,2800,2771,2686,2686,2762,2770,2796,2770,2847, ,2846,2873,2010,1953,2072,2068,2012,2027,1997,2026,2023, ,2032,2033,3187,3354,3092,3277,3257,3238,3245,3298,3294, ,3328,3288,7061,7069,7032,7032,7047,7032,7033,7049,7032, ,7049,7033,
-89.3029946871434,-92.6118296046501,-3.30883491750682,46.3663936085631,-104.054499131004,-256.755321517756,-350.342248130354,-231.426513373747,-106.895486553313,90.9574121458967,-42.9970798848183,-47.9603322610784,7611,7618,7582,7582,7594,7582,7583,7670,7582, ,7670,7583,2808,2800,2792,2804,2809,2810,2810,2815,2862, ,2859,2905,2046,2059,2094,2114,2045,2048,2033,2064,2065, ,2070,2076,3334,3421,3101,3340,3338,3335,3330,3354,3302, ,3339,3351,8081,8087,8051,8051,8061,8051,8053,8064,8051, ,8064,8053,
-225.191503956323,-77.4158144328151,147.775689523508,46.3663936085631,-99.5365583034173,-328.084419085514,-369.047763271099,-298.820732248993,-131.922277654897,151.303659194569,-186.483596739916,35.1799375453464,8624,8630,8592,8592,8604,8592,8716,8681,8592, ,8681,8716,2845,2909,2816,2821,2845,2858,2833,2901,2897, ,2901,2940,2075,2084,2939,2931,2070,2086,2059,2090,2091, ,2100,2105,3421,4324,3120,3379,3421,3402,3405,4216,4116, ,3349,3420,9087,9094,9054,9054,9067,9054,9278,9070,9054, ,9070,9278,
-332.306930878529,-65.8610899458974,266.445840932632,46.3663936085631,-68.944945450103,-308.493468217126,-381.600161070765,-310.154083860973,-164.762528774607,199.084010412213,-299.376385905581,100.292375493367,9768,9777,9596,9596,9611,9596,9909,9745,9596, ,9745,9909,3660,3632,3618,3618,3632,3669,3671,3712,3658, ,3556,3619,2106,2191,3032,3041,2123,2140,2089,2116,2117, ,2121,2117,4303,4336,3927,4161,4079,4075,4076,4318,4150, ,4062,4243, , , , , , , , , , , , ,
-403.81704068626,-65.8084241626559,338.008616523604,46.3663936085631,-74.2321492179541,-284.826330051749,-437.562237721544,-301.917240540104,-192.373426706821,234.812732424458,-370.912828604932,136.100096180474, , , , , , , , , , , , ,3673,3668,3637,3645,3665,3684,3679,3836,3674, ,3618,3663,2994,2954,3070,3068,2957,2996,3002,3012,3008, ,2993,2977,4499,4349,3969,4236,4175,4157,4153,4380,4157, ,4165,4294, , , , , , , , , , , , ,
-435.618780736755,-30.9968878942607,404.621892842494,46.3663936085631,-34.8816540410339,-319.144290137788,-428.973085867376,-323.848060250341,-206.700691733709,233.307834315508,-420.120336789625,186.812502474117, , , , , , , , , , , , ,3699,3699,3658,3685,3699,3727,3718,4816,3717, ,4851,3686,3029,2959,3092,3116,3010,3026,3026,3031,3010, ,3031,3012,5367,5271,4137,4293,4243,4258,4245,5314,5313, ,4226,4335, , , , , , , , , , , , ,
-455.03411550847,-1.50178254282774,453.532332965642,46.3663936085631,26.0539036858695,-268.036876232117,-374.992155902198,-336.832247443503,-200.338924151312,228.267949025649,-454.283224237056,226.015275211407, , , , , , , , , , , , ,4728,4767,3685,4780,4664,4752,4786,4843,4855, ,4867,4755,3067,3060,3756,3766,3046,3049,3060,3069,3064, ,3068,3033,5443,5353,5121,5259,5271,5227,5240,5315,5314, ,5341,5298, , , , , , , , , , , , ,
-463.457491962465,-1.50178254282774,461.955709419637,46.3663936085631,39.0531758141569,-190.110169459517,-356.127305498521,-299.298707264998,-191.760839546633,232.479637252646,-462.706600691051,230.226963438405, , , , , , , , , , , , ,4758,4792,4748,4812,4816,4808,4817,4883,4870, ,4909,4794,3096,3084,3867,3876,3072,3083,3088,3095,3091, ,3099,3074,5499,5435,5280,5344,5341,5329,5318,5459,5391, ,5366,5354, , , , , , , , , , , , ,
-445.261778277582,-1.50178254282774,443.759995734755,45.2178688880632,39.0531758141569,-178.299176721936,-357.197143239752,-259.835948337898,-190.152652935961,223.381780410205,-444.510887006168,221.129106595963, , , , , , , , , , , , ,4827,4830,4796,4847,4831,4847,4854,5804,4911, ,5847,4822,3122,3102,3905,3903,3122,3134,3123,3124,3283, ,3125,3126,6305,6291,5356,5423,5424,5415,5413,6292,6279, ,5375,5462, , , , , , , , , , , , ,
-415.533769598373,-1.50178254282774,414.031987055545,43.4455912865775,39.0531758141569,-147.492949391816,-299.826092196816,-256.296452820108,-182.626533224589,208.5177760706,-414.782878326959,206.265102256359, , , , , , , , , , , , ,5810,5748,4879,5688,5757,5779,5801,5840,5849, ,5859,5761,3833,3826,3927,3953,3761,3834,3840,3841,3842, ,3674,3755,6315,6369,6247,6247,6259,6247,6249,6316,6446, ,6306,6249, , , , , , , , , , , , ,
-379.054179962124,-1.50178254282774,377.552397419296,41.6562337948961,39.0531758141569,-57.7486612315918,-221.275141482786,-247.024258276709,-170.405900085577,190.277981252476,-378.30328869071,188.025307438234, , , , , , , , , , , , ,5816,5787,5688,5810,5814,5814,5815,5871,5859, ,5897,5790,3865,3894,4922,4935,3845,3865,3862,3860,3858, ,3712,3867,6337,7379,6359,6353,6334,6331,6315,6337,6507, ,6359,6360, , , , , , , , , , , , ,
-336.305626495257,-1.50178254282774,334.80384395243,41.1159599533517,39.0531758141569,0.223277025110872,-192.593380449106,-204.88220264605,-154.779665504438,168.903704519043,-335.554735223844,166.651030704801, , , , , , , , , , , , ,5847,5808,5790,5827,5847,5835,5837,6764,5899, ,6848,5825,3902,3918,5034,5042,3881,3887,3897,3898,3899, ,3750,3909,7339,7410,6475,6391,6423,6411,6419,7274,7361, ,6406,6477, , , , , , , , , , , , ,
-292.659843843006,12.5283977599317,305.188241602937,41.2872556380105,39.0531758141569,0.223277025110872,-180.485317785265,-158.39956046517,-137.031195501744,140.065723041537,-298.924042722971,158.858319681434, , , , , , , , , , , , ,6829,5847,5826,6687,6701,6775,6790,6804,6671, ,6862,6753,3932,3944,5073,5068,3905,3924,3925,3925,3927, ,3780,3930,7346,7441,7278,7278,7260,7246,7247,7297,7394, ,7285,7279, , , , , , , , , , , , ,
-248.703613682625,38.5826837292713,287.286297411897,43.7080421920455,39.0531758141569,0.223277025110872,-151.759880512709,-143.338672070514,-116.321961214075,105.060464976677,-267.994955547261,162.934490570584, , , , , , , , , , , , ,6834,6789,6687,6807,6812,6812,6813,6831,6692, ,6895,6787,3957,3997,5103,5117,3965,3979,4059,3953,4055, ,3804,4945,7355,8443,7344,7346,7337,7334,7322,7332,7442, ,7339,7352, , , , , , , , , , , , ,
-218.393391598553,59.0839061358534,277.477297734406,46.3663936085631,39.0531758141569,0.223277025110872,-90.133825121607,-133.397672687247,-96.763715954533,79.6547427313498,-247.93534466648,168.28060193513, , , , , , , , , , , , ,6863,6804,6787,6825,6828,6834,6835,7825,6866, ,7860,6835,4995,4993,5119,5938,4947,4992,4997,5007,5008, ,4993,5036,8479,8462,7442,7397,7406,7410,7407,8293,8449, ,7403,7443, , , , , , , , , , , , ,
-178.007061878548,74.1147760420748,252.121837920623,46.3663936085631,39.0531758141569,0.223277025110872,-50.506755774737,-123.021679172725,-79.9526848853875,51.9461429182366,-215.064449899585,163.118306981349, , , , , , , , , , , , ,7643,6929,6817,7710,7706,7788,7819,7830,7870, ,7881,7775,5031,4993,5926,6046,5011,5003,5027,5027,5024, ,5033,5077,8480,9301,8111,8349,8265,8253,8254,8330,8450, ,8346,8114, , , , , , , , , , , , ,
-141.786714423041,84.6710882291156,226.457802652156,46.3663936085631,39.0531758141569,0.223277025110872,-50.506755774737,-109.977433675697,-65.1544096606951,28.5578130969626,-184.122258537599,155.564445440636, , , , , , , , , , , , ,7664,7786,7694,7825,7829,7829,7830,7870,7883, ,7902,7817,5068,5060,6037,6072,5044,5039,5065,5065,5065, ,5070,5104,8542,9409,8119,8430,8358,8333,8331,8357,8488, ,8362,8264, , , , , , , , , , , , ,
-112.919108273765,89.2808105432397,202.199918817005,46.3663936085631,39.0531758141569,0.223277025110872,-50.506755774737,-85.8986999036039,-54.4158342524968,11.8191488652628,-157.559513545385,145.740364680122, , , , , , , , , , , , ,7838,7824,7810,7842,7844,7873,7874,8841,7905, ,8867,7842,5098,5084,6075,6122,5068,5079,5090,5091,5091, ,5101,5128,9519,9625,8344,9263,8429,8429,8421,9384,9334, ,8478,8340, , , , , , , , , , , , ,
-88.3865706215161,89.8432068056531,178.229777427169,46.3663936085631,39.0531758141569,0.223277025110872,-50.506755774737,-69.6395099542664,-45.5023615213421,-0.728318092068555,-133.308174024343,134.036492116411, , , , , , , , , , , , ,8868,7839,7835,8704,8796,8794,8820,8892,8873, ,8878,8780,5117,5155,6097,6929,5123,5122,5118,5114,5114, ,5119,5993,9580, ,9295,9344,9275,9263,9287,9402,9346, ,9519,9697, , , , , , , , , , , , ,
-69.1273177012945,86.0524242804944,155.179741981789,46.3663936085631,39.0531758141569,0.223277025110872,-50.506755774737,-69.6395099542664,-39.2403385910349,-8.46255328959996,-112.153529841542,120.616083131142, , , , , , , , , , , , ,8877,8796,8704,8828,8832,8832,8833,8972,8882, ,8915,8816,5997,5976,6921,7041,5969,5998,6007,6010,6011, ,5996,6016, , ,9383,9399,9345,9344,9341,9416,9355, ,9578,9758, , , , , , , , , , , , ,
-55.0626994777981,78.7431692388751,133.805868716673,46.3663936085631,39.0531758141569,0.223277025110872,-50.506755774737,-69.6395099542664,-34.6255688572641,-11.8402348805385,-94.4342840972356,106.274518977774, , , , , , , , , , , , ,8915,8823,8813,8845,8863,8883,8879, ,8915, , ,8847,6034,6018,7031,7068,6016,6031,6030,6029,6022, ,6036,6039, , ,9459, ,9431,9439,9432, , , , ,9819, , , , , , , , , , , , ,
-51.781842275192,69.2264128715462,121.008255146738,46.3663936085631,39.0531758141569,0.223277025110872,-50.506755774737,-69.6395099542664,-31.9765722914755,-8.72228529817708,-86.3950487109651,95.1173340091421, , , , , , , , , , , , , ,8857,8842, , , , , , , , , ,6072,6064,7070,7120,6050,6053,6066,6068,6069, ,6073,6079, , , , , , , , , , , , , , , , , , , , , , , , ,
-51.781842275192,57.4792707319573,109.261113007149,46.3663936085631,39.0531758141569,0.223277025110872,-50.506755774737,-69.6395099542664,-30.8281004072461,-2.84871422838266,-80.5214776411706,83.3701918695533, , , , , , , , , , , , , , , , , , , , , , , , ,6101,6088,7091,7951,6075,6089,6093,6094,6096, ,6103,6100, , , , , , , , , , , , , , , , , , , , , , , , ,
-51.781842275192,44.7307824376892,96.5126247128811,46.3663936085631,39.0531758141569,0.223277025110872,-50.506755774737,-69.6395099542664,-31.806405071832,3.5255299187514,-74.1472334940366,70.6217035752852, , , , , , , , , , , , , , , , , , , , , , , , ,6125,6106,8015,8058,6130,6138,6128,6122,6223, ,6127,6918, , , , , , , , , , , , , , , , , , , , , , , , ,
-51.781842275192,31.4032818452873,83.1851241204792,46.3663936085631,39.0531758141569,0.223277025110872,-50.506755774737,-69.6395099542664,-33.2065286792543,10.1892802149524,-67.4834831978356,57.2942029828832, , , , , , , , , , , , , , , , , , , , , , , , ,7006,6977,8050,8084,6986,6995,7003,6998,7006, ,6991,7032, , , , , , , , , , , , , , , , , , , , , , , , ,
-51.781842275192,18.2024728549639,69.9843151301558,46.3663936085631,39.0531758141569,0.223277025110872,-50.506755774737,-69.6395099542664,-34.1778454455563,16.7896847101141,-60.8830787026739,44.0933939925599, , , , , , , , , , , , , , , , , , , , , , , , ,7045,7029,8089,8134,7001,7025,7026,7018,7026, ,7031,7073, , , , , , , , , , , , , , , , , , , , , , , , ,
-52.5273794224386,5.6783649124593,58.2057443348978,46.3663936085631,39.0531758141569,0.223277025110872,-50.506755774737,-69.6643364915568,-37.3139501018326,23.4245072549896,-55.3665618786681,31.9420546236785, , , , , , , , , , , , , , , , , , , , , , , , ,7081,7075,8111,8955,7046,7048,7060,7054,7063, ,7068,7094, , , , , , , , , , , , , , , , , , , , , , , , ,
-58.8632957766104,-1.50178254282774,57.3615132337825,46.3663936085631,39.0531758141569,0.223277025110872,-50.506755774737,-69.6395099542664,-41.500558335202,30.182539159719,-58.1124045051964,27.9298653454774, , , , , , , , , , , , , , , , , , , , , , , , ,7111,7100,8981,9062,7071,7083,7088,7081,7092, ,7099,8005, , , , , , , , , , , , , , , , , , , , , , , , ,
-65.6333779661304,-1.50178254282774,64.1315954233025,46.3663936085631,39.0531758141569,0.223277025110872,-50.506755774737,-69.6395099542664,-45.6406806544278,33.5675802544791,-64.8824866947165,31.3149064402374, , , , , , , , , , , , , , , , , , , , , , , , ,7137,7133,9053,9089,7127,7135,7125,7111,7221, ,7123,8013, , , , , , , , , , , , , , , , , , , , , , , , ,
-70.9651730635374,-5.55743418593842,65.4077388775988,46.3663936085631,39.0531758141569,0.223277025110872,-50.506755774737,-69.6395099542664,-49.4159205654823,38.2613036247379,-68.1864559705681,29.9251523458302, , , , , , , , , , , , , , , , , , , , , , , , ,8013,8005,9092,9137,7944,8008,8014,8023,8024, ,8009,8052, , , , , , , , , , , , , , , , , , , , , , , , ,
-76.0290762595505,-12.5189514902142,63.5101247693362,46.3663936085631,39.0531758141569,0.223277025110872,-50.506755774737,-69.6395099542664,-52.5622788543692,44.2740138748823,-69.7696005144433,25.495586639561, , , , , , , , , , , , , , , , , , , , , , , , ,8047,8016,9115, ,8027,8043,8043,8043,8041, ,8048,8093, , , , , , , , , , , , , , , , , , , , , , , , ,
-79.1392500638331,-18.4032190611934,60.7360310026395,46.3663936085631,39.0531758141569,0.223277025110872,-50.506755774737,-69.6395099542664,-51.6721898837482,48.7712345625132,-69.9376405332363,21.1664059707231, , , , , , , , , , , , , , , , , , , , , , , , ,8084,8076, , ,8060,8063,8080,8081,8081, ,8086,8114, , , , , , , , , , , , , , , , , , , , , , , , ,
-81.5815192747059,-22.232208253979,59.3493110207268,46.3663936085631,39.0531758141569,0.223277025110872,-50.506755774737,-69.6395099542664,-48.8710466106875,51.9068637643424,-70.4654151477163,18.5585513833739, , , , , , , , , , , , , , , , , , , , , , , , ,8114,8100, , ,8085,8103,8106,8107,8108, ,8117,9023, , , , , , , , , , , , , , , , , , , , , , , , ,
-82.541321861398,-24.423502224631,58.1178196367669,46.3663936085631,39.0531758141569,0.223277025110872,-50.506755774737,-69.6395099542664,-45.5097767163374,53.4824120430145,-70.3295707490825,16.847158706068, , , , , , , , , , , , , , , , , , , , , , , , ,8169,8147, , ,8141,8163,8135,8131,8131, ,8136,9054, , , , , , , , , , , , , , , , , , , , , , , , ,
-82.0074788364341,-25.6137274583143,56.3937513781196,46.3663936085631,39.0531758141569,0.223277025110872,-50.506755774737,-69.6395099542664,-44.279938479778,53.8106031473742,-69.2006151072768,15.3900119599027, , , , , , , , , , , , , , , , , , , , , , , , ,9018,9015, , ,8948,9014,9031,9084,9027, ,9014,9096, , , , , , , , , , , , , , , , , , , , , , , , ,
-81.0419945923195,-25.5587046353746,55.4832899569447,46.3663936085631,39.0531758141569,0.223277025110872,-50.506755774737,-69.6395099542664,-44.1600088634199,53.300349613847,-68.2626422746321,14.9622926607851, , , , , , , , , , , , , , , , , , , , , , , , ,9052,9084, , ,9033,9047,9047,9102,9085, ,9053,9117, , , , , , , , , , , , , , , , , , , , , , , , ,
-80.3508733414337,-23.5388782551456,56.811995086288,46.3663936085631,39.0531758141569,0.223277025110872,-50.506755774737,-69.6395099542664,-43.4984522610019,51.9448757982896,-68.5814342138608,16.6365584155712, , , , , , , , , , , , , , , , , , , , , , , , ,9088,9109, , ,9066,9069,9083,9142,9112, ,9090, , , , , , , , , , , , , , , , , , , , , , , , , ,
-78.3702339781953,-21.0965419694546,57.2736920087406,46.3663936085631,39.0531758141569,0.223277025110872,-50.506755774737,-69.6395099542664,-38.9824380605094,49.7333879738249,-67.8219629934679,18.088575019643, , , , , , , , , , , , , , , , , , , , , , , , ,9116,9131, , ,9090,9106,9109,9167,9237, ,9120, , , , , , , , , , , , , , , , , , , , , , , , , ,
-74.8130791852568,-18.0837527944072,56.7293263908495,46.3663936085631,39.0531758141569,0.223277025110872,-50.506755774737,-69.6395099542664,-34.6965441224109,46.448415989832,-65.7712027880531,19.3227867982211, , , , , , , , , , , , , , , , , , , , , , , , ,9137,9254, , ,9148,9156,9139,9193, , ,9140, , , , , , , , , , , , , , , , , , , , , , , , , ,
-71.2629939755839,-14.219891531033,57.0431024445508,46.3663936085631,39.0531758141569,0.223277025110872,-50.506755774737,-69.6395099542664,-30.7940734499804,42.7414427533084,-64.1530482100673,21.4116054567589, , , , , , , , , , , , , , , , , , , , , , , , , , , , , , , , , , , , , , , , , , , , , , , , , , , , , , , , , , , , ,
-67.8734700236823,-10.3956550668858,57.4778149567965,46.3663936085631,39.0531758141569,0.223277025110872,-50.506755774737,-69.6395099542664,-30.7940734499804,39.134562545284,-62.6756424902394,23.5410799449554, , , , , , , , , , , , , , , , , , , , , , , , , , , , , , , , , , , , , , , , , , , , , , , , , , , , , , , , , , , , ,
-64.5727127782357,-6.97095418260735,57.6017585956282,46.3663936085631,39.0531758141569,0.223277025110872,-50.506755774737,-69.6395099542664,-30.7940734499804,35.7718334804215,-61.0872356869319,25.3154022065104, , , , , , , , , , , , , , , , , , , , , , , , , , , , , , , , , , , , , , , , , , , , , , , , , , , , , , , , , , , , ,
-61.3303779193388,-3.90727008347288,57.4231078358658,46.3663936085631,39.0531758141569,0.223277025110872,-50.506755774737,-69.6395099542664,-30.7940734499804,32.6188240014058,-59.3767428776023,26.7579188761965, , , , , , , , , , , , , , , , , , , , , , , , , , , , , , , , , , , , , , , , , , , , , , , , , , , , , , , , , , , , ,
-58.4553809197782,-1.50178254282774,56.9535983769504,46.3663936085631,39.0531758141569,0.223277025110872,-50.506755774737,-69.6395099542664,-30.7940734499804,29.978581731303,-57.7044896483643,27.7259079170613, , , , , , , , , , , , , , , , , , , , , , , , , , , , , , , , , , , , , , , , , , , , , , , , , , , , , , , , , , , , ,
-56.1053033287403,-1.50178254282774,54.6035207859125,46.3663936085631,39.0531758141569,0.223277025110872,-50.506755774737,-69.6395099542664,-30.7940734499804,28.803542935784,-55.3544120573264,26.5508691215424, , , , , , , , , , , , , , , , , , , , , , , , , , , , , , , , , , , , , , , , , , , , , , , , , , , , , , , , , , , , ,
-54.5096400604634,-1.50178254282774,53.0078575176356,46.3663936085631,39.0531758141569,0.223277025110872,-50.506755774737,-69.6395099542664,-30.7940734499804,28.0057113016456,-53.7587487890495,25.7530374874039, , , , , , , , , , , , , , , , , , , , , , , , , , , , , , , , , , , , , , , , , , , , , , , , , , , , , , , , , , , , ,
-53.3083315592007,-1.50178254282774,51.8065490163729,46.3663936085631,39.0531758141569,0.223277025110872,-50.506755774737,-69.6395099542664,-30.7940734499804,27.4050570510142,-52.5574402877868,25.1523832367726, , , , , , , , , , , , , , , , , , , , , , , , , , , , , , , , , , , , , , , , , , , , , , , , , , , , , , , , , , , , ,
-53.0121055000818,-1.50178254282774,51.510322957254,46.3663936085631,39.0531758141569,0.223277025110872,-50.506755774737,-69.6395099542664,-30.7940734499804,27.2569440214548,-52.2612142286679,25.0042702072131, , , , , , , , , , , , , , , , , , , , , , , , , , , , , , , , , , , , , , , , , , , , , , , , , , , , , , , , , , , , ,
-53.607992272503,-0.707040606096473,52.9009516664064,46.3663936085631,39.0531758141569,0.223277025110872,-50.506755774737,-69.6395099542664,-30.7940734499804,27.1575164392997,-53.2544719694547,26.096955530155, , , , , , , , , , , , , , , , , , , , , , , , , , , , , , , , , , , , , , , , , , , , , , , , , , , , , , , , , , , , ,
-55.0075558072181,-0.116644529336059,54.8909112778819,46.3663936085631,39.0531758141569,0.223277025110872,-50.506755774737,-69.8863581241945,-31.5818062969689,27.562100168277,-54.94923354255,27.3871333742729, , , , , , , , , , , , , , , , , , , , , , , , , , , , , , , , , , , , , , , , , , , , , , , , , , , , , , , , , , , , ,
-57.117979984183,0.149819852948764,57.2677998371316,46.3663936085631,39.0531758141569,0.223277025110872,-50.506755774737,-70.9110931551607,-33.5063610494122,28.4840800656171,-57.1928899106573,28.7088098450402, , , , , , , , , , , , , , , , , , , , , , , , , , , , , , , , , , , , , , , , , , , , , , , , , , , , , , , , , , , , ,
-59.7923426121206,0.225623594243712,60.0179662063642,46.3663936085631,39.0531758141569,0.223277025110872,-50.506755774737,-71.6197803720557,-35.5128359041554,29.7833595089384,-59.9051544092424,30.121794900304, , , , , , , , , , , , , , , , , , , , , , , , , , , , , , , , , , , , , , , , , , , , , , , , , , , , , , , , , , , , ,
-62.8374009936751,0.25749789739312,63.0948988910681,46.3663936085631,39.0531758141569,0.223277025110872,-50.506755774737,-72.4789860919263,-38.0307514402945,31.289951548141,-62.9661499423716,31.6761983942306, , , , , , , , , , , , , , , , , , , , , , , , , , , , , , , , , , , , , , , , , , , , , , , , , , , , , , , , , , , , ,
-66.0240570125711,0.62414295944694,66.6481999720179,46.3663936085631,39.0531758141569,0.223277025110872,-50.506755774737,-72.2945488029165,-39.1252229256136,32.6999570265621,-66.3361284922945,33.6361714657324, , , , , , , , , , , , , , , , , , , , , , , , , , , , , , , , , , , , , , , , , , , , , , , , , , , , , , , , , , , , ,
-66.3717602879397,1.00634403901422,67.3781043269537,46.3663936085631,39.0531758141569,0.223277025110872,-50.506755774737,-72.0951456135666,-40.1143424094839,32.6827081244627,-66.8749323074467,34.192224182984, , , , , , , , , , , , , , , , , , , , , , , , , , , , , , , , , , , , , , , , , , , , , , , , , , , , , , , , , , , , ,
-66.7552683778449,1.75322026242139,68.5084886402662,46.3663936085631,39.0531758141569,0.223277025110872,-50.506755774737,-71.0312431775398,-40.1360143883604,32.5010240577117,-67.6318785090555,35.1308544513438, , , , , , , , , , , , , , , , , , , , , , , , , , , , , , , , , , , , , , , , , , , , , , , , , , , , , , , , , , , , ,
-64.7313941845528,2.95374160533563,67.6851357898883,48.4232579010087,39.0531758141569,0.223277025110872,-50.506755774737,-69.6395099542664,-40.2486250842408,30.8888262896085,-66.2082649872205,35.319438697612, , , , , , , , , , , , , , , , , , , , , , , , , , , , , , , , , , , , , , , , , , , , , , , , , , , , , , , , , , , , ,
-62.2416156870183,4.80155670145512,67.0431723884734,50.5904233586346,39.0531758141569,0.223277025110872,-50.506755774737,-69.6395099542664,-39.2633820223386,28.7200294927816,-64.6423940377458,35.9223645449642, , , , , , , , , , , , , , , , , , , , , , , , , , , , , , , , , , , , , , , , , , , , , , , , , , , , , , , , , , , , ,
-59.1142304395062,7.01442382156916,66.1286542610752,53.2180979210722,39.0531758141569,0.223277025110872,-50.506755774737,-69.6395099542664,-37.8823032909865,26.0499033089685,-62.6214423502907,36.5715390413222, , , , , , , , , , , , , , , , , , , , , , , , , , , , , , , , , , , , , , , , , , , , , , , , , , , , , , , , , , , , ,
-55.4125040192871,9.69298167306141,65.1054856923484,55.4628549521774,39.0531758141569,0.223277025110872,-50.506755774737,-69.6395099542664,-36.0261303605251,22.8597611731128,-60.2589948558177,37.3992336827049, , , , , , , , , , , , , , , , , , , , , , , , , , , , , , , , , , , , , , , , , , , , , , , , , , , , , , , , , , , , ,
-51.781842275192,12.7651239997785,64.5469662749705,57.7964698507873,39.0531758141569,0.223277025110872,-50.506755774737,-69.6395099542664,-34.4049552223715,19.5083591377067,-58.1644042750812,38.6560451373745, , , , , , , , , , , , , , , , , , , , , , , , , , , , , , , , , , , , , , , , , , , , , , , , , , , , , , , , , , , , ,
-51.781842275192,16.7113066952662,68.4931489704582,59.8907985241988,39.0531758141569,0.223277025110872,-50.506755774737,-69.6395099542664,-32.0157845406853,17.5352677899629,-60.1374956228251,42.6022278328622, , , , , , , , , , , , , , , , , , , , , , , , , , , , , , , , , , , , , , , , , , , , , , , , , , , , , , , , , , , , ,
-48.0665829732256,20.076609534532,68.1431925077575,61.6847836068165,39.0531758141569,0.223277025110872,-50.506755774737,-69.6395099542664,-30.7940734499804,13.9949867193468,-58.1048877404915,44.1099010211447, , , , , , , , , , , , , , , , , , , , , , , , , , , , , , , , , , , , , , , , , , , , , , , , , , , , , , , , , , , , ,
-44.1414613289307,23.3190597786552,67.4605211075858,63.166870883671,39.0531758141569,0.223277025110872,-50.506755774737,-69.6395099542664,-30.7940734499804,10.4112007751378,-55.8009912182582,45.3897904431205, , , , , , , , , , , , , , , , , , , , , , , , , , , , , , , , , , , , , , , , , , , , , , , , , , , , , , , , , , , , ,
-40.6948319387952,26.3311120568036,67.0259439955988,64.8016604133473,39.0531758141569,0.223277025110872,-50.506755774737,-69.6395099542664,-30.7940734499804,7.18185994099577,-53.860387967197,46.6785280262012, , , , , , , , , , , , , , , , , , , , , , , , , , , , , , , , , , , , , , , , , , , , , , , , , , , , , , , , , , , , ,
-37.9375609879021,28.7250232015363,66.6625841894382,65.6713926235705,39.0531758141569,0.223277025110872,-50.506755774737,-69.6395099542664,-30.7940734499804,4.60626889318289,-52.3000725886701,47.6938036954872, , , , , , , , , , , , , , , , , , , , , , , , , , , , , , , , , , , , , , , , , , , , , , , , , , , , , , , , , , , , ,
-36.0523968573266,30.4239128153996,66.4763096727261,65.8220529601228,39.0531758141569,0.223277025110872,-50.506755774737,-69.569716200358,-30.7940734499804,2.81424202096345,-51.2643532650263,48.4501112440629, , , , , , , , , , , , , , , , , , , , , , , , , , , , , , , , , , , , , , , , , , , , , , , , , , , , , , , , , , , , ,
-35.1793983059074,31.2943699265161,66.4737682324234,65.4833700602229,40.3269759892863,0.223277025110872,-50.506755774737,-69.179356894457,-30.7940734499804,1.94251418969561,-50.8265832691654,48.8840690794698, , , , , , , , , , , , , , , , , , , , , , , , , , , , , , , , , , , , , , , , , , , , , , , , , , , , , , , , , , , , ,
-35.404238937756,31.2546315740652,66.6588705118211,64.6545654199811,41.2120671789164,0.223277025110872,-50.506755774737,-69.4131586920923,-30.3063364478574,2.07480368184534,-51.0315547247885,48.9567510429432, , , , , , , , , , , , , , , , , , , , , , , , , , , , , , , , , , , , , , , , , , , , , , , , , , , , , , , , , , , , ,
-36.7506388447541,30.2826316149613,67.0332704597153,63.3536295767853,41.5027582213212,0.223277025110872,-50.506755774737,-69.6395099542664,-30.4375525270305,3.23400361489638,-51.8919546522347,48.6579510373383, , , , , , , , , , , , , , , , , , , , , , , , , , , , , , , , , , , , , , , , , , , , , , , , , , , , , , , , , , , , ,
-39.1777241537507,28.4187381370233,67.5964622907738,61.6198390762838,41.2107041691695,0.223277025110872,-50.506755774737,-69.6395099542664,-30.7940734499804,5.37949300836367,-53.3870932222622,48.0076002138985, , , , , , , , , , , , , , , , , , , , , , , , , , , , , , , , , , , , , , , , , , , , , , , , , , , , , , , , , , , , ,
-42.5825524423913,25.7629403816764,68.3454928240675,59.512281673549,40.3748820579195,0.223277025110872,-50.506755774737,-69.6395099542664,-30.7940734499804,8.40980603035743,-55.4640226332294,47.0542166028719, , , , , , , , , , , , , , , , , , , , , , , , , , , , , , , , , , , , , , , , , , , , , , , , , , , , , , , , , , , , ,
-46.8074830125661,22.46688919929,69.274372211856,57.1069683442137,39.0588995056594,0.223277025110872,-50.506755774737,-69.6395099542664,-30.7940734499804,12.170296906638,-58.040927612211,45.870630705573, , , , , , , , , , , , , , , , , , , , , , , , , , , , , , , , , , , , , , , , , , , , , , , , , , , , , , , , , , , , ,
-51.651587566475,18.721725085242,70.3733126517168,54.4927283343717,39.0531758141569,0.223277025110872,-51.9409261043518,-71.9350889882125,-30.7940734499804,16.4649312406165,-61.0124501090959,44.5475188684794, , , , , , , , , , , , , , , , , , , , , , , , , , , , , , , , , , , , , , , , , , , , , , , , , , , , , , , , , , , , ,
-56.6457263563186,14.7430112082381,71.3887375645566,51.7662010911383,39.0531758141569,0.223277025110872,-53.5820868976039,-74.7935011100817,-34.9966326761586,20.9513575740403,-64.0172319604376,43.0658743863973, , , , , , , , , , , , , , , , , , , , , , , , , , , , , , , , , , , , , , , , , , , , , , , , , , , , , , , , , , , , ,
-62.1195780692351,10.7543037419807,72.8738818112157,49.0263398911797,39.0531758141569,-3.14141578438752,-55.3160863100918,-78.0846823442309,-38.0024869511396,25.6826371636272,-67.4967299402254,41.8140927765982, , , , , , , , , , , , , , , , , , , , , , , , , , , , , , , , , , , , , , , , , , , , , , , , , , , , , , , , , , , , ,
-67.5488517852373,7.59820046926872,75.1470522545059,46.3689036200457,39.0531758141569,-4.89841482883374,-56.8531301002538,-80.9196814271763,-41.9604015830014,29.9753256579843,-71.3479520198716,41.3726263618873, , , , , , , , , , , , , , , , , , , , , , , , , , , , , , , , , , , , , , , , , , , , , , , , , , , , , , , , , , , , ,
-72.5148994485812,4.21254070539896,76.7274401539801,46.3663936085631,39.0531758141569,-6.8457618272213,-59.0700115330408,-84.2984660894,-45.2087420781806,34.1511793715911,-74.6211698012806,40.4699904296895, , , , , , , , , , , , , , , , , , , , , , , , , , , , , , , , , , , , , , , , , , , , , , , , , , , , , , , , , , , , ,
-76.9677810372714,1.49642839876874,78.46420943604,45.1322323556651,37.0411604395168,-8.33854626613244,-60.5344225864574,-87.8681760569364,-48.2276622693121,37.7356763192513,-77.7159952366557,39.9803189174044, , , , , , , , , , , , , , , , , , , , , , , , , , , , , , , , , , , , , , , , , , , , , , , , , , , , , , , , , , , , ,
-80.7512380533426,-0.155548765040169,80.5956892883023,43.0323197431713,34.9520372695111,-9.5681493787255,-61.2449286571624,-89.8475376367957,-52.0670982444024,40.4533934091914,-80.6734636708224,40.2200702616311, , , , , , , , , , , , , , , , , , , , , , , , , , , , , , , , , , , , , , , , , , , , , , , , , , , , , , , , , , , , ,
-83.753166515422,-1.50178254282774,82.2513839725941,41.2351152882033,31.5018527832433,-11.5856225620766,-61.7000735706315,-91.8124784935951,-54.5436881744472,42.6274745291248,-83.002275244008,40.3748007148832, , , , , , , , , , , , , , , , , , , , , , , , , , , , , , , , , , , , , , , , , , , , , , , , , , , , , , , , , , , , ,
-85.9079147553721,-1.50178254282774,84.4061322125442,39.886484394428,29.6078320408126,-12.155619418533,-61.6453772729659,-92.8954848158187,-57.4977630444881,43.7048486490999,-85.1570234839581,41.4521748348582, , , , , , , , , , , , , , , , , , , , , , , , , , , , , , , , , , , , , , , , , , , , , , , , , , , , , , , , , , , , ,
-87.1953268986795,-1.50178254282774,85.6935443558516,38.8079654866117,27.8542656361657,-12.7775518520477,-62.0540368713986,-94.6673536822249,-59.132965459719,44.3485547207536,-86.4444356272655,42.0958809065119, , , , , , , , , , , , , , , , , , , , , , , , , , , , , , , , , , , , , , , , , , , , , , , , , , , , , , , , , , , , ,
-87.6370257635826,-1.42254804115366,86.2144777224289,38.1357660574557,26.3948714418891,-12.6181385149028,-61.2667760576229,-95.1936715164597,-60.9768465684211,44.5297869023681,-86.9257517430057,42.3959648406376, , , , , , , , , , , , , , , , , , , , , , , , , , , , , , , , , , , , , , , , , , , , , , , , , , , , , , , , , , , , ,
-87.290574612623,-0.172028529992946,87.1185460826299,38.0405844510614,25.2175685893894,-12.7424023386236,-60.3175988900919,-94.8692463659095,-61.6293509537065,43.731301571308,-87.2045603476265,43.4732587763185, , , , , , , , , , , , , , , , , , , , , , , , , , , , , , , , , , , , , , , , , , , , , , , , , , , , , , , , , , , , ,
-86.2421887664141,1.62041124750352,87.8626000139175,37.5401894344915,24.0232921975191,-11.9079088046237,-58.9601401155725,-94.507778718612,-61.767566834227,42.3108887594553,-87.0523943901658,44.7415056307105, , , , , , , , , , , , , , , , , , , , , , , , , , , , , , , , , , , , , , , , , , , , , , , , , , , , , , , , , , , , ,
-84.5986294945214,3.56636115717157,88.1649906516929,37.9636069723646,24.2460404317563,-10.8455181227666,-57.7497283948276,-93.3861810276485,-62.0736214035127,40.5161341686749,-86.3818100731071,45.8656759044322, , , , , , , , , , , , , , , , , , , , , , , , , , , , , , , , , , , , , , , , , , , , , , , , , , , , , , , , , , , , ,
-82.4788580263439,6.13982688428369,88.6186849106275,38.7004693651174,23.91238048802,-9.73366149803072,-56.0889566608888,-93.0770847663929,-61.246828397026,38.1695155710301,-85.5487714684857,47.3792558974556, , , , , , , , , , , , , , , , , , , , , , , , , , , , , , , , , , , , , , , , , , , , , , , , , , , , , , , , , , , , ,
-80.0059847727894,8.19399489315829,88.1999796659475,39.6900289594061,23.7920771952836,-8.1267589747534,-54.2857587766797,-91.3395436244598,-60.3865194571919,35.9059949398155,-84.1029822193684,48.1969872795529, , , , , , , , , , , , , , , , , , , , , , , , , , , , , , , , , , , , , , , , , , , , , , , , , , , , , , , , , , , , ,
-77.3000056220299,10.145592735325,87.4455983573547,40.9845598666342,24.3628968483459,-6.61620127334656,-52.4925022510952,-89.6531071450894,-58.7284482896591,33.5772064433524,-82.3728019896923,48.7955955463399, , , , , , , , , , , , , , , , , , , , , , , , , , , , , , , , , , , , , , , , , , , , , , , , , , , , , , , , , , , , ,
-74.4717471469839,11.7789385530995,86.2506857000833,42.5304820462609,25.2030071517738,-4.65718872683736,-50.6161211184706,-87.4769364649862,-56.7225993755857,31.3464042969422,-80.3612164235336,49.0148121265914, , , , , , , , , , , , , , , , , , , , , , , , , , , , , , , , , , , , , , , , , , , , , , , , , , , , , , , , , , , , ,
-71.6183367068979,13.1710288592004,84.7893655660982,44.0187781988876,25.7498121131884,-2.68560282570651,-50.506755774737,-85.7635804157721,-54.4200594138185,29.2236539238488,-78.203851136498,48.9801972126493, , , , , , , , , , , , , , , , , , , , , , , , , , , , , , , , , , , , , , , , , , , , , , , , , , , , , , , , , , , , ,
-68.8203721348132,14.611985333792,83.4323574686051,45.3564206159838,26.8503518045456,-0.463289235215018,-50.506755774737,-83.2892843665909,-51.8745663997791,27.1041934005106,-76.1263648017091,49.0221714011985, , , , , , , , , , , , , , , , , , , , , , , , , , , , , , , , , , , , , , , , , , , , , , , , , , , , , , , , , , , , ,
-66.1407881255409,14.9894220654882,81.130210191029,47.3892632070934,28.5203403069064,0.223277025110872,-50.506755774737,-80.7049008081859,-49.1414018279852,25.5756830300263,-73.6354991582849,48.0598161282586, , , , , , , , , , , , , , , , , , , , , , , , , , , , , , , , , , , , , , , , , , , , , , , , , , , , , , , , , , , , ,
-63.6252264889617,14.8875815261678,78.5128080151294,49.5237631762433,30.3444604949462,0.223277025110872,-50.506755774737,-78.0305382361188,-46.2764309230688,24.368822481397,-71.0690172520456,46.7001947706486, , , , , , , , , , , , , , , , , , , , , , , , , , , , , , , , , , , , , , , , , , , , , , , , , , , , , , , , , , , , ,
-61.4338302454998,14.3194783477347,75.7533085932344,51.6900780145511,32.3044303682355,0.223277025110872,-50.506755774737,-75.3534817506604,-43.6917534496642,23.5571759488826,-68.5935694193671,45.0363934704845, , , , , , , , , , , , , , , , , , , , , , , , , , , , , , , , , , , , , , , , , , , , , , , , , , , , , , , , , , , , ,
-59.9955967645728,13.3204131643317,73.3160099289045,53.5931025559396,34.0579411911778,0.223277025110872,-50.506755774737,-72.7072643570861,-40.8600305596203,23.3375918001205,-66.6558033467386,43.3182115466181, , , , , , , , , , , , , , , , , , , , , , , , , , , , , , , , , , , , , , , , , , , , , , , , , , , , , , , , , , , , ,
-58.2021996217895,11.9441157138635,70.146315335653,55.1017844814378,35.9086729767585,0.223277025110872,-50.506755774737,-70.0996630140757,-38.917653992173,23.129041953963,-64.1742574787212,41.0452155247582, , , , , , , , , , , , , , , , , , , , , , , , , , , , , , , , , , , , , , , , , , , , , , , , , , , , , , , , , , , , ,
-57.203826284225,10.2582458469397,67.4620721311645,57.0717939972642,37.2927412572161,0.223277025110872,-50.506755774737,-69.6395099542664,-38.4046477907545,23.4727902186426,-62.3329492076948,38.8601589890521, , , , , , , , , , , , , , , , , , , , , , , , , , , , , , , , , , , , , , , , , , , , , , , , , , , , , , , , , , , , ,
-55.7769659127407,8.3395011215894,64.11646703433,58.8967428893243,39.0768330160732,0.223277025110872,-50.506755774737,-69.6395099542664,-36.032447298246,23.7187323955756,-59.9467164735353,36.2279840779597, , , , , , , , , , , , , , , , , , , , , , , , , , , , , , , , , , , , , , , , , , , , , , , , , , , , , , , , , , , , ,
-55.050134127014,6.26857304751485,61.3187071745287,60.4832136958627,40.8352559137319,0.223277025110872,-50.506755774737,-69.6395099542664,-33.5706663285888,24.3907805397495,-58.1844206507713,33.7936401110218, , , , , , , , , , , , , , , , , , , , , , , , , , , , , , , , , , , , , , , , , , , , , , , , , , , , , , , , , , , , ,
-53.9702634658893,4.12518134863079,58.0954448145199,61.7684248721365,42.3336265713695,0.223277025110872,-50.506755774737,-69.6395099542664,-31.4962834878491,24.9225410586292,-56.0328541402046,31.1103130815754, , , , , , , , , , , , , , , , , , , , , , , , , , , , , , , , , , , , , , , , , , , , , , , , , , , , , , , , , , , , ,
-53.4430423102722,1.98340876985585,55.4264510801279,62.701549304318,43.704624146397,0.223277025110872,-50.506755774737,-69.6395099542664,-29.6049889536268,25.7298167702081,-54.4347466952,28.7049299249919, , , , , , , , , , , , , , , , , , , , , , , , , , , , , , , , , , , , , , , , , , , , , , , , , , , , , , , , , , , , ,
-52.7239089221757,-0.092426819134519,52.6314821030411,63.5053575127015,44.1476194104735,0.223277025110872,-50.506755774737,-69.6395099542664,-28.4388509663524,26.4081678706551,-52.6776955126084,26.2695276419533, , , , , , , , , , , , , , , , , , , , , , , , , , , , , , , , , , , , , , , , , , , , , , , , , , , , , , , , , , , , ,
-52.3551966689811,-2.05110108214648,50.3040955868345,63.6130069070283,44.9640106650158,0.223277025110872,-50.506755774737,-69.6395099542664,-27.0459800373514,27.2031488755638,-51.3296461279078,24.126497252344, , , , , , , , , , , , , , , , , , , , , , , , , , , , , , , , , , , , , , , , , , , , , , , , , , , , , , , , , , , , ,
-51.9832413514982,-3.8567521084522,48.1264892430459,63.7861063104652,45.5883019778872,0.223277025110872,-50.506755774737,-69.6395099542664,-26.3006833855392,27.9199967299752,-50.0548652972721,22.1348685672969, , , , , , , , , , , , , , , , , , , , , , , , , , , , , , , , , , , , , , , , , , , , , , , , , , , , , , , , , , , , ,
-52.1879225389707,-5.48988608481507,46.6980364541555,63.2465805966175,45.8730500592234,0.223277025110872,-50.506755774737,-69.6395099542664,-25.9880915040213,28.8389043118929,-49.4429794965631,20.6040751846702, , , , , , , , , , , , , , , , , , , , , , , , , , , , , , , , , , , , , , , , , , , , , , , , , , , , , , , , , , , , ,
-52.7295084902848,-6.9470166810108,45.7824918092739,62.2884431699809,45.6491053182183,1.32465008925574,-50.506755774737,-69.4656531322984,-25.7782540558793,29.8382625856478,-49.2560001497794,19.4177375641316, , , , , , , , , , , , , , , , , , , , , , , , , , , , , , , , , , , , , , , , , , , , , , , , , , , , , , , , , , , , ,
-54.180181687424,-8.23893792653088,45.941243760893,61.2967896997998,44.9012915367443,2.09226492736393,-50.0120790882021,-68.1877315730403,-26.4077996830804,31.2095598069774,-50.0607127241585,18.8511529171811, , , , , , , , , , , , , , , , , , , , , , , , , , , , , , , , , , , , , , , , , , , , , , , , , , , , , , , , , , , , ,
-57.0808755431483,-9.38771043089928,47.6931651122489,60.0541686223535,44.1630256861535,2.68678340806322,-49.2637917763716,-67.3552093643428,-26.7750110073564,33.2342929870238,-52.3870203276986,19.1527273406748, , , , , , , , , , , , , , , , , , , , , , , , , , , , , , , , , , , , , , , , , , , , , , , , , , , , , , , , , , , , ,
-57.8347771671922,-10.4225105079509,47.4122666592412,58.3946487546207,42.7261628768617,2.58005963064515,-48.8362936738195,-66.8202292496285,-27.7066852616949,34.1286438375715,-52.6235219132167,18.4948780756452, , , , , , , , , , , , , , , , , , , , , , , , , , , , , , , , , , , , , , , , , , , , , , , , , , , , , , , , , , , , ,
-60.1778338397571,-11.1538595133023,49.0239743264547,56.576155906361,41.2928503992237,2.4187178360349,-48.8820270017638,-66.6650184378956,-28.5066999316827,35.6658466765297,-54.6009040831059,18.9350574065762, , , , , , , , , , , , , , , , , , , , , , , , , , , , , , , , , , , , , , , , , , , , , , , , , , , , , , , , , , , , ,
-63.0135369498917,-11.7222879957462,51.2912489541453,54.2784389034822,39.9500260920234,1.79281724403354,-48.9168309485035,-67.0019113960122,-29.6304770184155,37.3679124728189,-57.1523929520185,19.7844804791996, , , , , , , , , , , , , , , , , , , , , , , , , , , , , , , , , , , , , , , , , , , , , , , , , , , , , , , , , , , , ,
-65.5992918940833,-12.2925292613607,53.3067626327224,52.2057622994879,37.898321100894,1.33336405092912,-49.1877914003766,-67.7637680819455,-30.7854919382263,38.945910577722,-59.4530272634029,20.5071166856809, , , , , , , , , , , , , , , , , , , , , , , , , , , , , , , , , , , , , , , , , , , , , , , , , , , , , , , , , , , , ,
-66.7642645147878,-12.0104713545875,54.7537931602001,50.3202189592638,36.3729512612434,0.223277025110872,-50.0389193755704,-68.3624527158163,-31.8971469852462,39.3873679346876,-60.7590288374939,21.3716609028063, , , , , , , , , , , , , , , , , , , , , , , , , , , , , , , , , , , , , , , , , , , , , , , , , , , , , , , , , , , , ,
-69.0642500016615,-12.7246598431401,56.3395901585213,48.2758583421752,35.1399279602516,-0.38177407284225,-50.7896355567657,-69.0326527151289,-33.1399991745521,40.8944549224008,-62.7019200800914,21.8074651576906, , , , , , , , , , , , , , , , , , , , , , , , , , , , , , , , , , , , , , , , , , , , , , , , , , , , , , , , , , , , ,
-71.2178256027362,-13.080711841545,58.1371137611911,46.3663936085631,33.6450995089425,-1.25718923682696,-51.3285621800027,-70.3069656190154,-34.4942111603392,42.1492687221406,-64.6774696819636,22.528200959823, , , , , , , , , , , , , , , , , , , , , , , , , , , , , , , , , , , , , , , , , , , , , , , , , , , , , , , , , , , , ,
-72.6282804678808,-13.3405733186924,59.2877071491883,44.4116572272259,32.3173362061534,-1.83166969089148,-51.8231058266516,-71.3117127601857,-35.2976164841864,42.9844268932866,-65.9579938085345,22.9735669152479, , , , , , , , , , , , , , , , , , , , , , , , , , , , , , , , , , , , , , , , , , , , , , , , , , , , , , , , , , , , ,
-73.6000441615529,-13.4602694461352,60.1397747154175,43.2179644840317,31.5656977379118,-2.39793811718163,-52.3713215865134,-71.9660488680793,-36.1977094308213,43.530156803844,-66.8699094384852,23.3397526346412, , , , , , , , , , , , , , , , , , , , , , , , , , , , , , , , , , , , , , , , , , , , , , , , , , , , , , , , , , , , ,
-73.6216716824135,-13.0954370585856,60.5262346238278,42.3675722566624,30.9160668632524,-2.2653571630258,-52.3163550699692,-72.3363036980499,-36.3206765035541,43.3585543704995,-67.0739531531207,23.7153987826211, , , , , , , , , , , , , , , , , , , , , , , , , , , , , , , , , , , , , , , , , , , , , , , , , , , , , , , , , , , , ,
-74.6942621061562,-12.4388215806671,62.255440525489,41.8671300660618,31.1458590351318,-1.97216378581315,-52.0966806009704,-72.711595247905,-36.4735013840278,43.5665418434116,-68.4748513158226,24.908309472411, , , , , , , , , , , , , , , , , , , , , , , , , , , , , , , , , , , , , , , , , , , , , , , , , , , , , , , , , , , , ,
-75.716738622514,-11.0490962094574,64.6676424130564,41.755904407283,31.8132470250883,-0.996686768192108,-51.2311867608368,-72.3648224328723,-35.6461833621827,43.3829174159857,-70.1921905177852,26.8092731017995, , , , , , , , , , , , , , , , , , , , , , , , , , , , , , , , , , , , , , , , , , , , , , , , , , , , , , , , , , , , ,
-73.3533569520587,-9.35979612032283,63.9935608317357,41.8812585290653,32.559202696082,0.223277025110872,-50.506755774737,-71.764430864352,-34.471678855243,41.3565765361907,-68.6734588918972,27.3168823557065, , , , , , , , , , , , , , , , , , , , , , , , , , , , , , , , , , , , , , , , , , , , , , , , , , , , , , , , , , , , ,
-70.0955546706537,-6.69427526651014,63.4012794041434,42.5098757257854,34.0859690268205,0.223277025110872,-50.506755774737,-70.4551630659599,-32.7573259430503,38.3949149685819,-66.7484170373985,28.3535020688166, , , , , , , , , , , , , , , , , , , , , , , , , , , , , , , , , , , , , , , , , , , , , , , , , , , , , , , , , , , , ,
-66.2500857549774,-3.71554402892535,62.5345417260519,43.5022845111696,35.8546546410832,0.223277025110872,-50.506755774737,-69.6395099542664,-30.7940734499804,34.9828148919513,-64.3923137405146,29.4094988485633, , , , , , , , , , , , , , , , , , , , , , , , , , , , , , , , , , , , , , , , , , , , , , , , , , , , , , , , , , , , ,
-61.2613439910692,0.219783795911849,61.481127786981,44.6227371717482,38.1733379795632,0.223277025110872,-50.506755774737,-69.6395099542664,-27.9909653506515,30.5207800975787,-61.3712358890251,30.8504557914464, , , , , , , , , , , , , , , , , , , , , , , , , , , , , , , , , , , , , , , , , , , , , , , , , , , , , , , , , , , , ,
-56.3060175693899,4.53992551994049,60.8459430893303,46.1043325733066,39.0531758141569,0.223277025110872,-50.506755774737,-68.8853870648964,-25.0082283322509,25.8830460247247,-58.5759803293601,32.6929343046354, , , , , , , , , , , , , , , , , , , , , , , , , , , , , , , , , , , , , , , , , , , , , , , , , , , , , , , , , , , , ,
-49.8931743001294,9.20408048322612,59.0972547833554,47.7089161565524,39.81871243903,0.223277025110872,-50.506755774737,-66.1079095515296,-21.5742236843558,20.3445469084516,-54.4952145417424,34.1506676332908, , , , , , , , , , , , , , , , , , , , , , , , , , , , , , , , , , , , , , , , , , , , , , , , , , , , , , , , , , , , ,
-44.2442025218197,14.3520715475447,58.5962740693643,49.3858266712182,42.656304525268,0.223277025110872,-50.506755774737,-63.133253876874,-18.2196350865567,14.9460654871375,-51.420238295592,36.4741728084545, , , , , , , , , , , , , , , , , , , , , , , , , , , , , , , , , , , , , , , , , , , , , , , , , , , , , , , , , , , , ,
-37.9552093834347,19.3514456922316,57.3066550756662,50.6937618093461,45.1485031262748,0.223277025110872,-50.506755774737,-60.3963282463407,-14.783194085357,9.30188184560157,-47.6309322295505,38.3290503839489, , , , , , , , , , , , , , , , , , , , , , , , , , , , , , , , , , , , , , , , , , , , , , , , , , , , , , , , , , , , ,
-31.431670366127,24.4902535324036,55.9219238985305,52.0192732820385,47.7711609203435,2.10239632423199,-49.6700432212034,-57.2722077889036,-11.2912349714861,3.47070841686172,-43.6767971323287,40.206088715467, , , , , , , , , , , , , , , , , , , , , , , , , , , , , , , , , , , , , , , , , , , , , , , , , , , , , , , , , , , , ,
-25.8837460830632,29.1791100336645,55.0628561167276,53.0862798796909,49.6811351921133,5.3208930261824,-46.1543026728934,-54.6235877586406,-8.23229544139706,-1.64768197530066,-40.4733010998954,42.120983075196, , , , , , , , , , , , , , , , , , , , , , , , , , , , , , , , , , , , , , , , , , , , , , , , , , , , , , , , , , , , ,
-21.9424941739683,33.2842507395448,55.226744913513,53.7385522145487,51.5547043134558,7.81351689737953,-43.2361651841833,-52.8194420889833,-6.26629415647965,-5.67087828278831,-38.5846195437406,44.2554978265289, , , , , , , , , , , , , , , , , , , , , , , , , , , , , , , , , , , , , , , , , , , , , , , , , , , , , , , , , , , , ,
-17.5077342590325,36.6909372857607,54.1986715447931,53.6936536843908,53.1073707930134,10.1875984930723,-40.5683497690831,-51.0365075173884,-4.41037454559966,-9.59160151336412,-35.8532029019128,45.4448044152769, , , , , , , , , , , , , , , , , , , , , , , , , , , , , , , , , , , , , , , , , , , , , , , , , , , , , , , , , , , , ,
-15.9071875857523,39.1336688881333,55.0408564738856,53.5154256415425,53.3394190908515,11.3475620473174,-38.6466143846359,-50.5701571980027,-3.37717836634049,-11.6132406511905,-35.4740220298189,47.0872626810094, , , , , , , , , , , , , , , , , , , , , , , , , , , , , , , , , , , , , , , , , , , , , , , , , , , , , , , , , , , , ,
-14.9119970495728,40.3871992656462,55.2991963152189,52.8722838303918,53.8846476520296,12.5534644877118,-37.2262383649396,-49.9545402571,-3.38433810305735,-12.7376011080367,-35.1055966823959,47.8431977904326, , , , , , , , , , , , , , , , , , , , , , , , , , , , , , , , , , , , , , , , , , , , , , , , , , , , , , , , , , , , ,
-14.9155218601741,40.5348912779924,55.4504131381664,51.7576343844791,52.8521025051192,12.6335230933555,-36.3917419307937,-49.6651368535679,-3.29804777895986,-12.8096847089092,-35.1829674991702,47.9926522080794, , , , , , , , , , , , , , , , , , , , , , , , , , , , , , , , , , , , , , , , , , , , , , , , , , , , , , , , , , , , ,
-16.2447126835013,40.2183171403794,56.4630298238806,50.2038424518415,52.4021670599443,12.4028841338862,-36.8109366308316,-51.3737062806801,-5.64073711933081,-11.986802228439,-36.353871253691,48.34067348213, , , , , , , , , , , , , , , , , , , , , , , , , , , , , , , , , , , , , , , , , , , , , , , , , , , , , , , , , , , , ,
-19.0839112136491,38.557622115877,57.641533329526,48.2352417513191,50.9563246281024,11.789462069582,-37.3079935525993,-52.5818972979178,-6.81801879028977,-9.73685545111395,-38.3627222715875,48.0995777227015, , , , , , , , , , , , , , , , , , , , , , , , , , , , , , , , , , , , , , , , , , , , , , , , , , , , , , , , , , , , ,
-22.2934278142222,36.0207774418201,58.3142052560423,45.9789966636651,49.0388202922684,9.76095357455016,-39.0223916910173,-55.3774861134035,-8.54159492488963,-6.86367481379897,-40.3038165351322,47.1674913489312, , , , , , , , , , , , , , , , , , , , , , , , , , , , , , , , , , , , , , , , , , , , , , , , , , , , , , , , , , , , ,
-27.4639861674377,32.8983974061327,60.3623835735703,43.4275771792143,47.5343143950365,8.09758098660673,-40.6730058742856,-57.6705427388498,-12.8594695098891,-2.7172056193475,-43.913184870504,46.6303904898515, , , , , , , , , , , , , , , , , , , , , , , , , , , , , , , , , , , , , , , , , , , , , , , , , , , , , , , , , , , , ,
-33.8018742901795,29.2456670884085,63.0475413785879,41.09709396301,44.2967366259848,5.51054824576401,-42.4174734565267,-60.1080516542502,-15.9148336078406,2.2781036008855,-48.4247078343837,46.1466042334982, , , , , , , , , , , , , , , , , , , , , , , , , , , , , , , , , , , , , , , , , , , , , , , , , , , , , , , , , , , , ,
-38.4520842051518,25.7746081656745,64.2266923708262,38.422484674631,42.5166538587021,3.70739474961058,-44.9704755948558,-64.6376250485542,-19.2716052837929,6.33873801973859,-51.339388287989,45.0006502682504, , , , , , , , , , , , , , , , , , , , , , , , , , , , , , , , , , , , , , , , , , , , , , , , , , , , , , , , , , , , ,
-43.9965646592989,22.1343378781394,66.1309025374382,35.6225121370651,40.3337699715062,1.18975432077771,-47.6154988105886,-67.3141542972327,-23.6546360063536,10.9311133905797,-55.0637335983685,44.1326202077888, , , , , , , , , , , , , , , , , , , , , , , , , , , , , , , , , , , , , , , , , , , , , , , , , , , , , , , , , , , , ,
-50.264866108289,18.3523788407325,68.6172449490213,32.9739376709726,37.3401737079407,-1.50014837394186,-50.506755774737,-70.0300970627933,-27.7494532736369,15.9562436337782,-59.4410555286551,43.4848118948769, , , , , , , , , , , , , , , , , , , , , , , , , , , , , , , , , , , , , , , , , , , , , , , , , , , , , , , , , , , , ,
-56.121367729427,15.1375669552235,71.2589346846504,30.3834309492862,35.5698108766006,-4.13098944758561,-52.9043589212334,-74.4964309183013,-32.0242728219613,20.4919003871017,-63.6901512070387,43.198250819937, , , , , , , , , , , , , , , , , , , , , , , , , , , , , , , , , , , , , , , , , , , , , , , , , , , , , , , , , , , , ,
-61.3609028740839,12.0139410723876,73.3748439464714,28.0878548319861,33.636299357417,-5.7497650401096,-55.1420077861035,-76.776023930744,-35.2049257190618,24.6734809008481,-67.3678734102776,42.6943925094295, , , , , , , , , , , , , , , , , , , , , , , , , , , , , , , , , , , , , , , , , , , , , , , , , , , , , , , , , , , , ,
-67.0304369323517,9.39645857559918,76.4268955079507,26.230179063586,33.0080363413536,-7.32796757161337,-57.2296750733789,-79.4952960248361,-39.4605452864629,28.8169891783762,-71.7286662201512,42.911677041775, , , , , , , , , , , , , , , , , , , , , , , , , , , , , , , , , , , , , , , , , , , , , , , , , , , , , , , , , , , , ,
-70.6936569186425,7.19822694050249,77.8918838591449,24.3353789742019,32.2959541865118,-9.78010858735944,-59.833512201502,-82.4461679084196,-42.8890911494549,31.74771498907,-74.2927703888937,42.5450553998237, , , , , , , , , , , , , , , , , , , , , , , , , , , , , , , , , , , , , , , , , , , , , , , , , , , , , , , , , , , , ,
-73.3937527828425,5.53560352630067,78.9293563091431,22.7543852130945,32.9665637673587,-10.1714309133329,-60.84666240631,-83.7255212999832,-45.7976340963997,33.9290746282709,-76.1615545459928,42.2324799177219, , , , , , , , , , , , , , , , , , , , , , , , , , , , , , , , , , , , , , , , , , , , , , , , , , , , , , , , , , , , ,
-77.7792203059432,4.35147622361246,82.1306965295556,21.5341473584046,33.0673359286006,-10.5153253158631,-61.2738804186802,-85.5298203922075,-47.5212657889401,36.7138720411654,-79.9549584177494,43.241086376584, , , , , , , , , , , , , , , , , , , , , , , , , , , , , , , , , , , , , , , , , , , , , , , , , , , , , , , , , , , , ,
-80.8961785586953,3.74963914231354,84.6458177010087,20.5787318566202,33.0887595245864,-11.2677625855749,-62.9484911947908,-86.6580848603358,-48.8467294416276,38.5732697081909,-82.770998129852,44.1977284216611, , , , , , , , , , , , , , , , , , , , , , , , , , , , , , , , , , , , , , , , , , , , , , , , , , , , , , , , , , , , ,
-81.9945256598596,3.55939383576473,85.5539194956242,19.957945189827,34.9738601595206,-10.8022329106428,-62.7161874878424,-86.8855376116225,-49.7601270130281,39.2175659120474,-83.7742225777419,44.5566566656945, , , , , , , , , , , , , , , , , , , , , , , , , , , , , , , , , , , , , , , , , , , , , , , , , , , , , , , , , , , , ,
-82.7543634270041,3.13425853188199,85.888621958886,19.6737001181245,35.612896583053,-10.4782889368407,-62.5910897934954,-87.2367463420007,-50.2585932669173,39.810052447561,-84.3214926929451,44.511440245384, , , , , , , , , , , , , , , , , , , , , , , , , , , , , , , , , , , , , , , , , , , , , , , , , , , , , , , , , , , , ,
-85.5322525325307,2.83748378847191,88.3697363210025,19.7234757479057,36.6823676303816,-9.2667864937358,-61.9148370590692,-86.7024262242084,-50.3487121791616,41.3473843720294,-86.9509944267666,45.6036100547372, , , , , , , , , , , , , , , , , , , , , , , , , , , , , , , , , , , , , , , , , , , , , , , , , , , , , , , , , , , , ,
-85.1806656856716,2.57122935811152,87.751895043783,20.1005475971378,38.3793446945637,-7.38161054833253,-60.7648922956195,-86.3293202846411,-50.0448497101633,41.30471816378,-86.4662803647272,45.1615622009472, , , , , , , , , , , , , , , , , , , , , , , , , , , , , , , , , , , , , , , , , , , , , , , , , , , , , , , , , , , , ,
-85.7278174796247,2.34205673544276,88.0698742150674,20.793942751007,40.4081830984836,-5.58450252140634,-59.5576084535606,-84.9659977260449,-49.3675291430228,41.692880372091,-86.898845847346,45.2059654752551, , , , , , , , , , , , , , , , , , , , , , , , , , , , , , , , , , , , , , , , , , , , , , , , , , , , , , , , , , , , ,
-85.7665973986952,2.1200944505358,87.8866918492309,21.8467844653145,42.1097181081952,-2.60546912006335,-57.7241519349935,-83.2187686073561,-48.341976109446,41.8232514740797,-86.8266446239631,45.0033931498834, , , , , , , , , , , , , , , , , , , , , , , , , , , , , , , , , , , , , , , , , , , , , , , , , , , , , , , , , , , , ,
-85.7325533713945,2.30160792149563,88.03416129289,23.324893604747,45.0983152869602,0.223277025110872,-55.5548756597484,-82.2017727350703,-46.9969502653388,41.7154727249494,-86.8833573321422,45.1678846071928, , , , , , , , , , , , , , , , , , , , , , , , , , , , , , , , , , , , , , , , , , , , , , , , , , , , , , , , , , , , ,
-85.6785434532183,1.69439291391917,87.3729363671373,24.8963927064659,47.2273730786538,3.60360488765003,-52.9824556426067,-79.8839232073823,-45.363953969197,41.9920752696495,-86.5257399101778,44.5336646405282, , , , , , , , , , , , , , , , , , , , , , , , , , , , , , , , , , , , , , , , , , , , , , , , , , , , , , , , , , , , ,
-84.3008558451086,0.9723533091322,85.2732091542406,26.7115572363514,50.37600753601,7.69411697733203,-50.506755774737,-77.9320261014066,-43.4768635965348,41.6642512679882,-84.7870324996746,43.1227812316864, , , , , , , , , , , , , , , , , , , , , , , , , , , , , , , , , , , , , , , , , , , , , , , , , , , , , , , , , , , , ,
-83.9370065769822,0.440429620857526,84.3774361978396,28.8391846962698,52.8708010431098,11.4170243761016,-50.506755774737,-75.408748742863,-41.3719676683961,41.7482884780623,-84.1572213874109,42.4089329093486, , , , , , , , , , , , , , , , , , , , , , , , , , , , , , , , , , , , , , , , , , , , , , , , , , , , , , , , , , , , ,
-82.6489385922353,0.0808859622506306,82.7298245544858,30.9571729814378,55.6436048540106,15.8825487465234,-50.506755774737,-72.6875258977541,-39.0883238819426,41.2840263149923,-82.6893815733605,41.4053552583682, , , , , , , , , , , , , , , , , , , , , , , , , , , , , , , , , , , , , , , , , , , , , , , , , , , , , , , , , , , , ,
-81.361693409571,-0.63718430293311,80.7245091066378,33.177682229159,58.8707719440197,19.7075073349508,-50.506755774737,-70.1632207510354,-36.6682740764942,40.999438856252,-81.0431012581044,40.0436624018523, , , , , , , , , , , , , , , , , , , , , , , , , , , , , , , , , , , , , , , , , , , , , , , , , , , , , , , , , , , , ,
-79.4489169519807,-1.39375379400805,78.0551631579725,35.4351166042785,61.7893009072627,23.7584464737717,-49.4461647378709,-69.6395099542664,-34.1578945002924,40.4213353729943,-78.7520400549766,38.3307046819822, , , , , , , , , , , , , , , , , , , , , , , , , , , , , , , , , , , , , , , , , , , , , , , , , , , , , , , , , , , , ,
-77.1214017051723,-1.84341450322846,75.2779872019437,37.709620788719,64.7918071359094,27.5107158547917,-44.1578781688791,-69.6395099542664,-31.6071250054597,39.4824081042003,-76.199694453558,36.7172863493576, , , , , , , , , , , , , , , , , , , , , , , , , , , , , , , , , , , , , , , , , , , , , , , , , , , , , , , , , , , , ,
-75.0779829428111,-2.09989661262454,72.9780863301864,40.4177803642533,68.1369936833264,32.9686314907893,-39.6368163880716,-69.6395099542664,-29.0693317872944,38.5889397777178,-74.0280346364988,35.439094858781, , , , , , , , , , , , , , , , , , , , , , , , , , , , , , , , , , , , , , , , , , , , , , , , , , , , , , , , , , , , ,
-72.6655032664373,-2.37194314506748,70.2935601213697,42.7631343612783,71.1948231697932,37.2013823551445,-35.0215934845753,-69.6395099542664,-26.600122237154,37.5187232057524,-71.4795316939035,33.9608084881511, , , , , , , , , , , , , , , , , , , , , , , , , , , , , , , , , , , , , , , , , , , , , , , , , , , , , , , , , , , , ,
-70.0046596568038,-2.29894027115764,67.7057193856461,44.9457388413257,76.2252135587484,41.1417196283066,-29.5073509161691,-69.6395099542664,-24.2553432563912,36.1517999639807,-68.8551895212249,32.7033895572442, , , , , , , , , , , , , , , , , , , , , , , , , , , , , , , , , , , , , , , , , , , , , , , , , , , , , , , , , , , , ,
-67.3876491582291,-1.88580756862389,65.5018415896051,46.7008616149308,80.2798747240506,45.7671244110763,-25.171377960325,-69.6395099542664,-22.0883407076906,34.6367283634265,-66.4447453739171,31.8080170104906, , , , , , , , , , , , , , , , , , , , , , , , , , , , , , , , , , , , , , , , , , , , , , , , , , , , , , , , , , , , ,
-65.4090996178884,-1.44722408862914,63.9618755292591,48.4115805611287,83.700276674102,49.2914526099298,-20.4332141987723,-69.6395099542664,-20.1467111698745,33.4281618532587,-64.6854875735737,31.257325720315, , , , , , , , , , , , , , , , , , , , , , , , , , , , , , , , , , , , , , , , , , , , , , , , , , , , , , , , , , , , ,
-64.6622311439837,-0.859565538385641,63.802665605598,49.6219668533861,86.3682182935948,53.6095163732505,-15.068149456428,-69.6395099542664,-18.4689024237118,32.7608983411847,-64.2324483747908,31.4715500336062, , , , , , , , , , , , , , , , , , , , , , , , , , , , , , , , , , , , , , , , , , , , , , , , , , , , , , , , , , , , ,
-63.9054911504966,0.0842975304939104,63.9897886809904,51.0783994282584,89.0480583622073,57.5532679113072,-11.6489550617992,-69.6395099542664,-17.081084657347,31.9105968100013,-63.9476399157435,32.0370431057421, , , , , , , , , , , , , , , , , , , , , , , , , , , , , , , , , , , , , , , , , , , , , , , , , , , , , , , , , , , , ,
-63.2227620623094,1.19094111255235,64.4137031748616,51.9255593483046,91.3550732887482,60.6729779223148,-6.72584833305169,-69.6395099542664,-15.9947105087264,31.0159104748785,-63.8182326185855,32.802322143707, , , , , , , , , , , , , , , , , , , , , , , , , , , , , , , , , , , , , , , , , , , , , , , , , , , , , , , , , , , , ,
-62.6876959822548,2.41075623030151,65.0984522125562,52.5397668084048,93.7867836230726,64.5751411058044,-3.78425987726306,-69.3839309394345,-15.2051213187572,30.1384698759766,-63.8930740974055,33.7546042214289, , , , , , , , , , , , , , , , , , , , , , , , , , , , , , , , , , , , , , , , , , , , , , , , , , , , , , , , , , , , ,
-62.3533203878139,3.73373187240271,66.0870522602165,52.7339821210625,95.6363750332131,67.6715337102224,-1.00143580322797,-68.1299334943391,-14.6914533346866,29.3097942577056,-64.2201863240152,34.9103920663096, , , , , , , , , , , , , , , , , , , , , , , , , , , , , , , , , , , , , , , , , , , , , , , , , , , , , , , , , , , , ,
-62.2441867987438,5.45091963150092,67.6951064302446,52.7461729776491,97.2941622613681,70.7268181149374,1.64169546790938,-67.0568574651211,-14.4179552579045,28.3966335836214,-64.9696466144942,36.5730130308728, , , , , , , , , , , , , , , , , , , , , , , , , , , , , , , , , , , , , , , , , , , , , , , , , , , , , , , , , , , , ,
-62.3523529198107,7.06432295549903,69.4166758753097,52.8644210424943,99.2658554055853,73.8128656984211,4.17368797653366,-66.1312048858078,-14.3366576475764,27.6440149821558,-65.8845143975602,38.2404994154044, , , , , , , , , , , , , , , , , , , , , , , , , , , , , , , , , , , , , , , , , , , , , , , , , , , , , , , , , , , , ,
-62.6379094295132,8.99158653470299,71.6294959642161,52.7700583648795,100.865264813056,76.4053832675557,6.66231726381303,-65.3114092224223,-14.3911638159344,26.8231614474051,-67.1337026968646,40.3105412494595, , , , , , , , , , , , , , , , , , , , , , , , , , , , , , , , , , , , , , , , , , , , , , , , , , , , , , , , , , , , ,
-60.9945429609431,11.1941365676531,72.1886795285961,52.2279763346026,102.678311158949,79.135928302993,9.34050292791542,-64.5506918823468,-14.5211921876713,24.900203196645,-66.5916112447696,41.6914080481246, , , , , , , , , , , , , , , , , , , , , , , , , , , , , , , , , , , , , , , , , , , , , , , , , , , , , , , , , , , , ,
-58.9489522245901,13.6016311577351,72.5505833823251,51.6534825816527,103.870653838732,82.1676615582599,11.9522721517064,-63.8003876814889,-14.6674061453551,22.6736605334275,-65.7497678034576,43.0761072700301, , , , , , , , , , , , , , , , , , , , , , , , , , , , , , , , , , , , , , , , , , , , , , , , , , , , , , , , , , , , ,
-57.1956566159181,16.2905284381195,73.4861850540374,51.097700707972,105.641180873784,84.7449063752233,14.8089721124733,-63.154048876285,-14.7760225107609,20.4525640888993,-65.3409208349778,44.8883567460785, , , , , , , , , , , , , , , , , , , , , , , , , , , , , , , , , , , , , , , , , , , , , , , , , , , , , , , , , , , , ,
-54.9797665575982,19.4455646817851,74.4253312393832,50.607927128837,107.105982436718,88.0614431745824,17.5380028954066,-62.4028177690227,-14.8027033726633,17.7671009379065,-64.7025488984906,46.9354479605841, , , , , , , , , , , , , , , , , , , , , , , , , , , , , , , , , , , , , , , , , , , , , , , , , , , , , , , , , , , , ,
-53.3774274176378,22.277360544266,75.6547879619037,50.6366105696079,108.925203065437,90.8386444209828,20.3711981520088,-61.5175498526947,-14.7153225893223,15.5500334366859,-64.5161076897707,48.9660742530848, , , , , , , , , , , , , , , , , , , , , , , , , , , , , , , , , , , , , , , , , , , , , , , , , , , , , , , , , , , , ,
-51.0748296355011,25.472924140073,76.5477537755741,50.386564480002,111.439575998756,94.1130346713734,23.4117137856151,-60.6603208246586,-14.4953591688512,12.800952747714,-63.8112917055376,51.0103389578236, , , , , , , , , , , , , , , , , , , , , , , , , , , , , , , , , , , , , , , , , , , , , , , , , , , , , , , , , , , , ,
-49.2862835349099,28.3405250678463,77.6268086027561,50.3390534267641,113.504257087739,97.1810797200881,26.3216907466364,-59.5414368794988,-14.1378797789811,10.4728792335318,-63.456546068833,52.9836668353012, , , , , , , , , , , , , , , , , , , , , , , , , , , , , , , , , , , , , , , , , , , , , , , , , , , , , , , , , , , , ,
-46.9408268159175,35.8505061362532,82.7913329521706,50.4026797325917,115.98984873791,100.962584333518,29.2661356505398,-58.5259157882804,-13.6502854120666,5.54516033983211,-64.866079884044,59.3209195442119, , , , , , , , , , , , , , , , , , , , , , , , , , , , , , , , , , , , , , , , , , , , , , , , , , , , , , , , , , , , ,
-44.4949259786508,38.9589146364925,83.4538406151432,50.8515286880609,118.36018351298,105.319316737174,32.2667366057825,-56.990500717397,-13.0501613457323,2.76800567107914,-63.974383296897,61.2063776258179, , , , , , , , , , , , , , , , , , , , , , , , , , , , , , , , , , , , , , , , , , , , , , , , , , , , , , , , , , , , ,
-42.1705065156111,41.1082310389931,83.278737554604,51.2178807251817,121.235726143517,111.202204369515,35.2664081897496,-55.4740251515941,-12.3626476027094,0.531137738309013,-62.7246220351076,62.1934842967986, , , , , , , , , , , , , , , , , , , , , , , , , , , , , , , , , , , , , , , , , , , , , , , , , , , , , , , , , , , , ,
-40.032672188051,42.7978284586918,82.8305006467427,51.8598321748558,123.973759044836,115.833576203413,38.4988264810887,-53.9149568721657,-11.6177285600736,-1.38257813532039,-61.4315864173968,62.8141645527172, , , , , , , , , , , , , , , , , , , , , , , , , , , , , , , , , , , , , , , , , , , , , , , , , , , , , , , , , , , , ,
-38.1407906056966,43.9275977418294,82.0683883475258,52.4506337165546,127.112545933788,121.432894495238,41.8035831174515,-51.9553777656482,-10.8477426865286,-2.89340356806642,-60.1045894766112,62.9979930446776, , , , , , , , , , , , , , , , , , , , , , , , , , , , , , , , , , , , , , , , , , , , , , , , , , , , , , , , , , , , ,
-36.5451050949421,44.4136773253097,80.9587824202517,53.195655537388,130.105835382324,126.387164464019,44.6846940512234,-50.4799993272118,-10.0852756399214,-3.93428611518384,-58.7519437575968,62.6862298727807, , , , , , , , , , , , , , , , , , , , , , , , , , , , , , , , , , , , , , , , , , , , , , , , , , , , , , , , , , , , ,
-35.2848369709002,44.1920450721592,79.4768820430593,53.8931533966446,132.941680615648,131.287671660361,47.6192378421331,-48.4206105514757,-9.36147105409605,-4.45360405062953,-57.3808595069797,61.8344635576092, , , , , , , , , , , , , , , , , , , , , , , , , , , , , , , , , , , , , , , , , , , , , , , , , , , , , , , , , , , , ,
-34.6747693429036,43.2207030127692,77.8954723556726,54.6342168140862,135.750211878697,136.488206285693,50.8227221872069,-46.3386350812363,-8.70471136621233,-4.27296683493283,-56.2851208492881,60.5580876842209, , , , , , , , , , , , , , , , , , , , , , , , , , , , , , , , , , , , , , , , , , , , , , , , , , , , , , , , , , , , ,
-34.2767347625916,41.4807147501771,75.7574495127685,55.3504838371969,138.630756517909,140.415427449692,53.7462279007527,-44.7973619048208,-8.1395935279699,-3.60198999379278,-55.01709213768,58.6190821314728, , , , , , , , , , , , , , , , , , , , , , , , , , , , , , , , , , , , , , , , , , , , , , , , , , , , , , , , , , , , ,
-34.2998249341363,38.9764319118769,73.2762568460131,55.9740669693408,142.09476222262,145.700125763707,56.1358968751851,-42.9623237197678,-7.68613112946058,-2.33830348887034,-53.7880408900746,56.126344378945, , , , , , , , , , , , , , , , , , , , , , , , , , , , , , , , , , , , , , , , , , , , , , , , , , , , , , , , , , , , ,
-34.6488770716896,35.735217059239,70.3840941309285,57.1211370565379,144.784265827771,148.562406511373,58.4095893078941,-40.9887602219033,-7.35913100269572,-0.54316999377469,-52.5164856013091,53.0596555950837, , , , , , , , , , , , , , , , , , , , , , , , , , , , , , , , , , , , , , , , , , , , , , , , , , , , , , , , , , , , ,
-35.2863885786974,31.8068612686984,67.0932498473956,57.575327021259,147.444289800915,153.367826546508,60.477591121602,-39.1296903799504,-7.16771038111124,1.73976365499946,-51.1898192130465,49.450055558047, , , , , , , , , , , , , , , , , , , , , , , , , , , , , , , , , , , , , , , , , , , , , , , , , , , , , , , , , , , , ,
-36.5931755017991,27.2627437643157,63.8559192661147,57.9262319534296,149.89078185526,156.002732928504,62.753366867118,-37.3645139112468,-7.86106346768849,4.66521586874168,-50.2245473839569,45.5593315152152, , , , , , , , , , , , , , , , , , , , , , , , , , , , , , , , , , , , , , , , , , , , , , , , , , , , , , , , , , , , ,
-37.9925459483788,22.1946335798713,60.18717952825,58.1713158482891,152.313771103312,159.879793048467,65.1044474799783,-35.6983318016968,-8.09091965917724,7.89895618425377,-49.0898627383144,41.1909065540606, , , , , , , , , , , , , , , , , , , , , , , , , , , , , , , , , , , , , , , , , , , , , , , , , , , , , , , , , , , , ,
-39.6820696310726,16.7129299939382,56.3949996250107,58.3158315738109,154.584722702844,162.386506566051,66.7301997113321,-34.2167506680264,-8.67176234586019,11.4845698185672,-48.0385346280417,36.5539648094745, , , , , , , , , , , , , , , , , , , , , , , , , , , , , , , , , , , , , , , , , , , , , , , , , , , , , , , , , , , , ,
-41.570859836894,10.9441033769992,52.5149632138931,58.3726083381537,157.208328657303,165.62351043446,68.1832154168561,-32.9316892469347,-9.45087834555908,15.3133782299474,-47.0429115253935,31.7295332954461, , , , , , , , , , , , , , , , , , , , , , , , , , , , , , , , , , , , , , , , , , , , , , , , , , , , , , , , , , , , ,
-44.1155391101115,5.02713678965372,49.1426758997651,58.3613919413362,159.404473856166,167.806820841167,69.7673533852024,-32.039834256628,-10.5905580343631,19.5442011602289,-46.6291075049383,27.0849063447094, , , , , , , , , , , , , , , , , , , , , , , , , , , , , , , , , , , , , , , , , , , , , , , , , , , , , , , , , , , , ,
-46.1987352384528,-0.891124244541319,45.3076109939114,58.3077795600605,161.654168389767,169.727153341669,71.5135132580273,-31.2118695723561,-11.5600076221245,23.5449297414971,-45.7531731161821,22.2082433746851, , , , , , , , , , , , , , , , , , , , , , , , , , , , , , , , , , , , , , , , , , , , , , , , , , , , , , , , , , , , ,
-48.213311298148,-2.25993419242365,45.9533771057243,58.2418181887488,163.651748019828,171.461931555078,73.4436220736778,-30.6745658343436,-12.6137899129073,25.2366227452858,-47.0833442019361,21.8467214566503, , , , , , , , , , , , , , , , , , , , , , , , , , , , , , , , , , , , , , , , , , , , , , , , , , , , , , , , , , , , ,
-50.0202987081097,-7.73798448749794,42.2823142206117,58.1963473101939,165.674036493655,173.542264946047,74.8304463533091,-30.3798519547791,-13.5432820204658,28.8791415978038,-46.1513064643607,17.2721648665569, , , , , , , , , , , , , , , , , , , , , , , , , , , , , , , , , , , , , , , , , , , , , , , , , , , , , , , , , , , , ,
-51.781842275192,-12.7900132843608,38.9918289908311,58.2051684436139,167.762264603505,175.556345573441,76.832525711773,-30.1515243019648,-14.3104006653424,32.2859277797764,-45.3868356330116,13.1009078532351, , , , , , , , , , , , , , , , , , , , , , , , , , , , , , , , , , , , , , , , , , , , , , , , , , , , , , , , , , , , ,
-53.0896856793338,-17.3005564705289,35.7891292088047,58.3011231267431,169.949865259091,178.161232723631,78.3662785978242,-29.7459100156801,-14.8136540100555,35.1951210749314,-44.4394074440692,9.2442863691379, , , , , , , , , , , , , , , , , , , , , , , , , , , , , , , , , , , , , , , , , , , , , , , , , , , , , , , , , , , , ,
-53.9727982606496,-21.1786398614672,32.7941583991823,58.5141564024634,172.266422300064,180.786416793065,80.2013677074744,-29.5593331953259,-16.1200930886223,37.5757190610584,-43.3834783299159,5.80775926885754, , , , , , , , , , , , , , , , , , , , , , , , , , , , , , , , , , , , , , , , , , , , , , , , , , , , , , , , , , , , ,
-55.2713743661072,-24.3632625633595,30.9081118027476,58.8694369789357,174.736109134091,183.838809248313,81.8964593642254,-29.580452059099,-16.3536167068142,39.8173184647334,-43.0897430844274,3.27242461969404, , , , , , , , , , , , , , , , , , , , , , , , , , , , , , , , , , , , , , , , , , , , , , , , , , , , , , , , , , , , ,
-55.1671033022169,-26.8275542785384,28.3395490236784,59.3856113007826,177.376364547586,186.848919535151,84.0869637464145,-29.5911558065954,-17.6208546213371,40.9973287903776,-41.7533261629476,0.75599737257004, , , , , , , , , , , , , , , , , , , , , , , , , , , , , , , , , , , , , , , , , , , , , , , , , , , , , , , , , , , , ,
-55.0096830824377,-28.5812537539955,26.4284293284421,60.0733001335193,180.265577939289,190.168741294086,86.1486014557415,-29.4103519662444,-17.5951316320032,41.7954684182166,-40.7190562054399,-1.07641221277667, , , , , , , , , , , , , , , , , , , , , , , , , , , , , , , , , , , , , , , , , , , , , , , , , , , , , , , , , , , , ,
-54.0326554198593,-29.6712143091031,24.3614411107561,60.933994636323,183.38789632958,194.203051418939,89.2081132427179,-29.2330561517561,-17.3421313225384,41.8519348644812,-39.1970482653077,-2.6548865991735, , , , , , , , , , , , , , , , , , , , , , , , , , , , , , , , , , , , , , , , , , , , , , , , , , , , , , , , , , , , ,
-52.8461237454001,-30.179729955402,22.6663937899979,61.959540497715,186.56327404877,197.982015693694,91.457999292566,-28.9778342526691,-16.9276155542824,41.512926850401,-37.756258767699,-3.75666808270206, , , , , , , , , , , , , , , , , , , , , , , , , , , , , , , , , , , , , , , , , , , , , , , , , , , , , , , , , , , , ,
-50.9686494769699,-30.2206059352859,20.7480435416838,63.1323758997835,190.455932898615,202.296539288233,94.0110398386701,-28.6440228064223,-16.5379528596406,40.5946277061279,-35.8583465093268,-4.73628119680104, , , , , , , , , , , , , , , , , , , , , , , , , , , , , , , , , , , , , , , , , , , , , , , , , , , , , , , , , , , , ,
-48.8394013960901,-29.9330652784586,18.9063361176314,64.4266007908036,194.832661819455,206.519775540108,96.5940799767802,-28.2580415935408,-16.2370248804165,39.3862333372744,-33.8728687568607,-5.51336458041363, , , , , , , , , , , , , , , , , , , , , , , , , , , , , , , , , , , , , , , , , , , , , , , , , , , , , , , , , , , , ,
-46.7379398212224,-29.4737668022902,17.2641730189321,65.8098287597858,198.446662074219,211.045152453902,99.1327187167971,-27.7367078234853,-15.9259940447661,38.1058533117563,-32.0010564200772,-6.10479689167904, , , , , , , , , , , , , , , , , , , , , , , , , , , , , , , , , , , , , , , , , , , , , , , , , , , , , , , , , , , , ,
-44.5041549577106,-29.0073823595636,15.4967725981469,67.2456544602896,202.081586980295,215.191647736341,102.001100903542,-26.9509032174166,-15.1593190564733,36.7557686586371,-30.0004637779288,-6.75530488070832, , , , , , , , , , , , , , , , , , , , , , , , , , , , , , , , , , , , , , , , , , , , , , , , , , , , , , , , , , , , ,
-42.2574038449422,-28.6963188018716,13.5610850430705,68.6964904442521,206.226270252095,219.438861042375,104.353856557802,-26.2685775703075,-15.2075168883008,35.4768613234069,-27.9092444440064,-7.56761687940054, , , , , , , , , , , , , , , , , , , , , , , , , , , , , , , , , , , , , , , , , , , , , , , , , , , , , , , , , , , , ,
-40.0644733563843,-28.6902625539867,11.3742108023974,70.1264935713893,209.881677150177,223.56777028731,106.913083147552,-25.6860491721629,-14.4787382248328,34.3773679551855,-25.7193420793908,-8.65802587579462, , , , , , , , , , , , , , , , , , , , , , , , , , , , , , , , , , , , , , , , , , , , , , , , , , , , , , , , , , , , ,
-38.4518897339969,-29.1162714946306,9.33561823936621,71.5043055393652,214.031355969378,227.634823038311,109.156974168083,-25.153648706909,-14.5050465159674,33.7840806143138,-23.8937539866816,-9.8903266276322, , , , , , , , , , , , , , , , , , , , , , , , , , , , , , , , , , , , , , , , , , , , , , , , , , , , , , , , , , , , ,
-37.8369269069333,-30.070136990006,7.7667899169272,72.8053649875467,218.556413067847,232.567997042067,111.288418280951,-24.4521488094219,-13.8625326033597,33.9535319484696,-22.8018584119302,-11.1516735365394, , , , , , , , , , , , , , , , , , , , , , , , , , , , , , , , , , , , , , , , , , , , , , , , , , , , , , , , , , , , ,
-36.8867689051767,-31.6096791157934,5.27708978938325,74.0136012878696,221.988327956666,236.703536707237,113.080875563865,-23.9479257758814,-13.4706713634019,34.248224010485,-21.08192934728,-13.166294663205, , , , , , , , , , , , , , , , , , , , , , , , , , , , , , , , , , , , , , , , , , , , , , , , , , , , , , , , , , , , ,
-36.4469126105478,-33.7505150501244,2.69639756042321,75.1223860129969,225.803096631786,240.966217450317,115.116126503583,-23.5220975116247,-13.5771128216267,35.0987138303361,-19.5716550854855,-15.5270587448506, , , , , , , , , , , , , , , , , , , , , , , , , , , , , , , , , , , , , , , , , , , , , , , , , , , , , , , , , , , , ,
-36.714413052126,-36.464659008609,0.249754043516852,76.1346926029214,229.411842571799,244.922330956129,116.448654216815,-23.2238392347233,-13.7461686840287,36.5895360303675,-18.4820835478214,-18.1074524825461, , , , , , , , , , , , , , , , , , , , , , , , , , , , , , , , , , , , , , , , , , , , , , , , , , , , , , , , , , , , ,
-37.198596282891,-39.6820841411552,-2.48348785826433,77.0624919390205,232.451706619022,248.681358813993,117.600822508899,-23.1140387256661,-14.1357969374284,38.4403402120231,-17.3575542123133,-21.0827859997098, , , , , , , , , , , , , , , , , , , , , , , , , , , , , , , , , , , , , , , , , , , , , , , , , , , , , , , , , , , , ,
-38.1390461336437,-43.2951276623389,-5.15608152869535,77.9254816762417,235.441458071169,252.374889475345,118.884788927973,-23.1663003880489,-14.9815739195608,40.7170868979913,-16.4914823024741,-24.2256045955171, , , , , , , , , , , , , , , , , , , , , , , , , , , , , , , , , , , , , , , , , , , , , , , , , , , , , , , , , , , , ,
-39.7787566255588,-47.1653975582456,-7.38664093268695,78.7492988026205,239.403061700637,255.820659154397,119.656696205982,-23.3336247710588,-16.117842887758,43.4720770919022,-16.1960578464359,-27.2760192454663, , , , , , , , , , , , , , , , , , , , , , , , , , , , , , , , , , , , , , , , , , , , , , , , , , , , , , , , , , , , ,
-41.1045469545902,-51.1326937963832,-10.0281468417931,79.5633904956228,242.072378933699,259.29790445007,120.122731203648,-23.5991019679021,-16.8911475536655,46.1186203754867,-15.5382000563986,-30.5804203190881, , , , , , , , , , , , , , , , , , , , , , , , , , , , , , , , , , , , , , , , , , , , , , , , , , , , , , , , , , , , ,
-42.5241419646609,-55.0253968169454,-12.5012548522846,80.3987198538091,245.472794523255,262.617062391315,120.805507192647,-23.9391356025858,-17.9517223408981,48.7747693908031,-15.0114435561881,-33.763325834615, , , , , , , , , , , , , , , , , , , , , , , , , , , , , , , , , , , , , , , , , , , , , , , , , , , , , , , , , , , , ,
-44.5905000035218,-58.6717512802411,-14.0812512767194,81.2854693936959,248.03615674932,265.996956528419,121.228746754005,-24.325278076641,-19.3455116613671,51.6311256418814,-15.2546243634012,-36.3765012784802, , , , , , , , , , , , , , , , , , , , , , , , , , , , , , , , , , , , , , , , , , , , , , , , , , , , , , , , , , , , ,
-45.738947087217,-61.9114312110496,-16.1724841238328,82.2508831959974,251.175169689806,269.338334269639,121.445227785599,-24.7264564451414,-20.5817690516653,53.8251891491333,-14.7832314816921,-39.0419576674412, , , , , , , , , , , , , , , , , , , , , , , , , , , , , , , , , , , , , , , , , , , , , , , , , , , , , , , , , , , , ,
-46.524716116493,-64.6067146592931,-18.0819985428002,83.3173606694194,253.582208376733,272.748199025886,121.768490972383,-24.7866672073458,-22.1624689884297,55.565715387893,-14.2213587868464,-41.3443566010466, , , , , , , , , , , , , , , , , , , , , , , , , , , , , , , , , , , , , , , , , , , , , , , , , , , , , , , , , , , , ,
-46.8437216939012,-66.6525613643781,-19.808839670477,84.5008855335392,256.669135616199,276.19298186965,121.919901722952,-25.1057656850747,-24.0080807915902,56.7481415291396,-13.5174410117121,-43.2307005174275, , , , , , , , , , , , , , , , , , , , , , , , , , , , , , , , , , , , , , , , , , , , , , , , , , , , , , , , , , , , ,
-46.9212893908373,-67.9849057135726,-21.0636163227355,85.8098515989629,259.044514261545,279.709303353056,122.144906387694,-24.6252137052824,-25.3333210042064,57.4530975522049,-12.9288365340509,-44.524261018154, , , , , , , , , , , , , , , , , , , , , , , , , , , , , , , , , , , , , , , , , , , , , , , , , , , , , , , , , , , , ,
-46.2894199933908,-68.5865518858072,-22.2971318924165,87.2443385396897,261.924662783491,283.253495199984,122.356521021031,-24.7071747249485,-26.6827316683141,57.4379859395989,-11.9961440504871,-45.4418418891118, , , , , , , , , , , , , , , , , , , , , , , , , , , , , , , , , , , , , , , , , , , , , , , , , , , , , , , , , , , , ,
-44.866399803522,-68.4901736922667,-23.6237738887449,88.7958927837609,265.057216869059,286.450468342272,122.638386954879,-24.7848097235103,-27.8204501037647,56.6782867478943,-10.6213129573885,-46.0569737905058, , , , , , , , , , , , , , , , , , , , , , , , , , , , , , , , , , , , , , , , , , , , , , , , , , , , , , , , , , , , ,
-43.1681227337965,-67.7780616573501,-24.6099389235537,90.4478670077237,268.428844923079,288.684155561518,122.952551444984,-24.6873428265786,-28.886715786699,55.4730921955733,-9.2790919051214,-46.1940002904519, , , , , , , , , , , , , , , , , , , , , , , , , , , , , , , , , , , , , , , , , , , , , , , , , , , , , , , , , , , , ,
-41.0042284355848,-66.5784230912173,-25.5741946556326,92.1763492510037,270.79158225444,290.881690076286,123.224397955028,-24.2663555679413,-29.8765689373821,53.791325763401,-7.71501688997606,-46.0763088734249, , , , , , , , , , , , , , , , , , , , , , , , , , , , , , , , , , , , , , , , , , , , , , , , , , , , , , , , , , , , ,
-38.2461545324188,-65.0582486690506,-26.8120941366319,93.9516622322327,273.266173849323,292.995894761367,123.534015859655,-23.7347151939647,-30.860080342438,51.6522016007347,-5.71703019789344,-45.9351714028412, , , , , , , , , , , , , , , , , , , , , , , , , , , , , , , , , , , , , , , , , , , , , , , , , , , , , , , , , , , , ,
-35.2867918243357,-63.4130338176394,-28.1262419933038,95.7403447859078,275.589746314402,294.973053585817,123.729128048352,-23.3323298940834,-32.5691572871964,49.3499128209876,-3.58027491551597,-45.7696379054716, , , , , , , , , , , , , , , , , , , , , , , , , , , , , , , , , , , , , , , , , , , , , , , , , , , , , , , , , , , , ,
-32.3050961158835,-61.8539743913786,-29.5488782754952,97.5074578356659,279.429676167331,296.755973482843,123.797414176454,-23.1560083878283,-33.4684949182358,47.0795352536311,-1.37810892019415,-45.7014263334369, , , , , , , , , , , , , , , , , , , , , , , , , , , , , , , , , , , , , , , , , , , , , , , , , , , , , , , , , , , , ,
-29.472736019324,-60.5935878566935,-31.1208518373696,99.219001500388,283.256473145163,298.287355930484,123.80519703573,-23.0479291071891,-34.4223057209826,45.0331619380087,0.824057909022855,-45.8572198470316, , , , , , , , , , , , , , , , , , , , , , , , , , , , , , , , , , , , , , , , , , , , , , , , , , , , , , , , , , , , ,
-26.9578917139406,-59.8309613075115,-32.873069593571,100.844200632061,286.492343620917,299.513227923631,123.537090401372,-23.0539899277903,-35.381949472954,43.394426510726,2.95758893981521,-46.3520154505413, , , , , , , , , , , , , , , , , , , , , , , , , , , , , , , , , , , , , , , , , , , , , , , , , , , , , , , , , , , , ,
-24.9138211064442,-59.737925601454,-34.8241044950099,102.357424593374,290.500267018855,300.386164642532,123.051880587499,-23.2726818001045,-36.0870105325844,42.325873353949,4.95514169428289,-47.2810150482319, , , , , , , , , , , , , , , , , , , , , , , , , , , , , , , , , , , , , , , , , , , , , , , , , , , , , , , , , , , , ,
-23.4686320151668,-60.4473780095452,-36.9787459943785,103.739554131062,293.105657343086,300.868047090727,122.18992645983,-23.7330355719371,-36.8517552176647,41.958005012356,6.75505698960589,-48.7130620019619, , , , , , , , , , , , , , , , , , , , , , , , , , , , , , , , , , , , , , , , , , , , , , , , , , , , , , , , , , , , ,
-22.8674444087992,-62.0447508599468,-39.1773064511477,104.978681685687,296.993196325981,300.932133625331,121.018496374027,-24.3496020280686,-37.7743372497751,42.456097634373,8.15493102117428,-50.6110286555473, , , , , , , , , , , , , , , , , , , , , , , , , , , , , , , , , , , , , , , , , , , , , , , , , , , , , , , , , , , , ,
-23.0735077869801,-64.563289737185,-41.489781950205,106.070118156341,299.057264757135,300.564283828983,119.554901617169,-25.2678211119107,-38.1126730056152,43.8183987620826,9.20813708161245,-53.026535843695, , , , , , , , , , , , , , , , , , , , , , , , , , , , , , , , , , , , , , , , , , , , , , , , , , , , , , , , , , , , ,
-23.8965600575859,-67.9833884852526,-44.0868284276668,107.015771748168,302.448727811618,299.763264426796,117.781203518277,-26.3940507786131,-39.2550720279143,45.9399742714192,10.0951341850404,-56.0351084564597, , , , , , , , , , , , , , , , , , , , , , , , , , , , , , , , , , , , , , , , , , , , , , , , , , , , , , , , , , , , ,
-25.4752909825468,-72.2357705758437,-46.760479593297,107.823051705442,304.167082049581,298.540186772802,115.680904582842,-27.5936362977703,-40.5302499402118,48.8555307791952,10.6425943053752,-59.4981250845704, , , , , , , , , , , , , , , , , , , , , , , , , , , , , , , , , , , , , , , , , , , , , , , , , , , , , , , , , , , , ,
-27.7231690712242,-77.2078922335044,-49.4847231622803,108.503507395093,306.647427696101,296.917239880327,113.311068802559,-28.9412442509961,-41.9862210017565,52.4655306523643,10.880777045528,-63.3463076978923, , , , , , , , , , , , , , , , , , , , , , , , , , , , , , , , , , , , , , , , , , , , , , , , , , , , , , , , , , , , ,
-30.5324370957742,-82.7526685399551,-52.220231444181,109.071418467114,308.301565860296,294.925946339954,110.681230309353,-30.8428259923576,-43.5478146401896,56.6425528178646,10.8438971742034,-67.486449992068, , , , , , , , , , , , , , , , , , , , , , , , , , , , , , , , , , , , , , , , , , , , , , , , , , , , , , , , , , , , ,
-34.1009509385565,-88.6985334611547,-54.5975825225983,109.542505064372,309.447604055706,292.605163943192,107.765171173353,-32.4263009591831,-45.2005700978379,61.3997421998556,10.2483157920209,-71.6480579918765, , , , , , , , , , , , , , , , , , , , , , , , , , , , , , , , , , , , , , , , , , , , , , , , , , , , , , , , , , , , ,
-37.7763006187717,-94.8599121322896,-57.083611513518,109.93285373739,311.379454547358,290.406288505056,104.635897354991,-34.6185359897852,-46.7714457196644,66.3181063755307,9.65365544737313,-75.9717618229038, , , , , , , , , , , , , , , , , , , , , , , , , , , , , , , , , , , , , , , , , , , , , , , , , , , , , , , , , , , , ,
-41.6526127698439,-101.047349278228,-59.3947365083847,110.258085441971,310.791769979617,287.833160910344,101.488724543319,-36.680417499577,-48.4517808271418,71.3499810240362,8.87106186927039,-80.2210428933066, , , , , , , , , , , , , , , , , , , , , , , , , , , , , , , , , , , , , , , , , , , , , , , , , , , , , , , , , , , , ,
-46.307934887812,-107.076744361105,-60.7688094732931,110.532742225219,311.945702733812,284.918167446572,98.2758833310538,-38.7637923660391,-49.6507176258723,76.6923396244585,7.23043729274056,-83.9227769171991, , , , , , , , , , , , , , , , , , , , , , , , , , , , , , , , , , , , , , , , , , , , , , , , , , , , , , , , , , , , ,
-50.0930854190899,-112.777347104294,-62.684261685204,110.769836322513,312.144875782625,282.636189472482,94.9558907240015,-41.0037362604428,-51.4416080685739,81.4352162616918,6.29558813305705,-87.7308043947489, , , , , , , , , , , , , , , , , , , , , , , , , , , , , , , , , , , , , , , , , , , , , , , , , , , , , , , , , , , , ,
-53.6840613179331,-117.998334845889,-64.3142735279563,110.980483281527,311.038185971513,279.370723597722,91.6393005696454,-42.5549277296835,-52.8397637627406,85.8411980819112,5.31510610501161,-91.1563041869228, , , , , , , , , , , , , , , , , , , , , , , , , , , , , , , , , , , , , , , , , , , , , , , , , , , , , , , , , , , , ,
-56.9733044098698,-122.613909317972,-65.6406049081026,111.173533806052,310.845328437727,276.081092739892,88.397978344784,-44.6455346598834,-54.4618080667526,89.793606863921,4.3336502491164,-94.1272571130374, , , , , , , , , , , , , , , , , , , , , , , , , , , , , , , , , , , , , , , , , , , , , , , , , , , , , , , , , , , , ,
-59.8727223908957,-126.526911309177,-66.6541889182815,111.355137672565,310.204452190243,273.69065121658,85.2178953026057,-46.6048780826439,-55.7482642634546,93.1998168500363,3.39073326369294,-96.5905501137293, , , , , , , , , , , , , , , , , , , , , , , , , , , , , , , , , , , , , , , , , , , , , , , , , , , , , , , , , , , , ,
-62.3161845917591,-129.670965888575,-67.3547812968157,111.528216998483,308.623910951315,270.447255457337,82.2070538442738,-48.4923509153483,-57.2718146351991,95.9935752401669,2.5192983525283,-98.5128735926952, , , , , , , , , , , , , , , , , , , , , , , , , , , , , , , , , , , , , , , , , , , , , , , , , , , , , , , , , , , , ,
-64.2608616735317,-132.011164559394,-67.7503028858627,111.691879463051,306.950031148547,267.502314857161,79.3441413798635,-49.6037302811279,-58.5183743504953,98.136013116463,1.74472060616552,-99.8807337226285, , , , , , , , , , , , , , , , , , , , , , , , , , , , , , , , , , , , , , , , , , , , , , , , , , , , , , , , , , , , ,
-65.6874171782292,-133.543299017178,-67.855881838949,111.84084664981,305.55717590799,264.942304362793,76.6627395314279,-50.9580889359095,-59.7410916203037,99.6153580977036,1.0842323303599,-100.699590428064, , , , , , , , , , , , , , , , , , , , , , , , , , , , , , , , , , , , , , , , , , , , , , , , , , , , , , , , , , , , ,
-66.5991084777133,-134.291702279486,-67.6925938017724,111.964998747939,304.043145560732,261.857966284322,74.0947810074894,-52.3420581268986,-60.5365395018703,100.445405378599,0.546742662029544,-100.992148040629, , , , , , , , , , , , , , , , , , , , , , , , , , , , , , , , , , , , , , , , , , , , , , , , , , , , , , , , , , , , ,
-67.0198969091539,-134.305817682453,-67.2859207732994,112.049140860636,302.416718874394,259.355425437003,71.7094170861239,-52.9675453872502,-61.4640161616703,100.662857295804,0.133011932072776,-100.795869227876, , , , , , , , , , , , , , , , , , , , , , , , , , , , , , , , , , , , , , , , , , , , , , , , , , , , , , , , , , , , ,
-66.9916918167178,-133.655685730518,-66.6639939138008,112.073079064333,299.746005082079,256.779484530645,69.4927250919957,-54.2441067110072,-62.1862895887081,100.323688773618,-0.163848951458476,-100.15983982216, , , , , , , , , , , , , , , , , , , , , , , , , , , , , , , , , , , , , , , , , , , , , , , , , , , , , , , , , , , , ,
-66.5708683584855,-132.426601407151,-65.8557330486655,112.012063017592,298.19750259838,253.893918913792,67.4251810339048,-54.425913538538,-62.8058860511822,99.4987348828182,-0.357567654909985,-99.1411672279082, , , , , , , , , , , , , , , , , , , , , , , , , , , , , , , , , , , , , , , , , , , , , , , , , , , , , , , , , , , , ,
-65.8242172967387,-130.713249158933,-64.8890318621948,111.837613379224,296.838101941262,251.751632711936,65.5878680761757,-55.3969194256569,-63.1902212859505,98.268733227836,-0.467592717271913,-97.8011405105641, , , , , , , , , , , , , , , , , , , , , , , , , , , , , , , , , , , , , , , , , , , , , , , , , , , , , , , , , , , , ,
-64.8245238981385,-128.613678096065,-63.7891541979266,111.51870847432,293.999829179084,248.831094122914,63.7198514271967,-55.6429849307778,-63.4534403292314,96.7191009971017,-0.517684850105951,-96.2014161469958, , , , , , , , , , , , , , , , , , , , , , , , , , , , , , , , , , , , , , , , , , , , , , , , , , , , , , , , , , , , ,
-63.6460435747292,-126.223544389793,-62.5775008150635,111.023258823149,292.329921327273,245.882988427104,61.8919137729022,-55.5313711684363,-63.6408060759325,94.9347939822609,-0.53427137983283,-94.4005226024281, , , , , , , , , , , , , , , , , , , , , , , , , , , , , , , , , , , , , , , , , , , , , , , , , , , , , , , , , , , , ,
-62.5319438007791,-123.631106849316,-61.0991630485369,110.319760613735,290.337726151594,242.871725890892,60.1075325347341,-55.8718987491046,-63.5265671834857,93.0815253250475,-0.716390376121083,-92.3651349489264, , , , , , , , , , , , , , , , , , , , , , , , , , , , , , , , , , , , , , , , , , , , , , , , , , , , , , , , , , , , ,
-61.4318213947729,-120.913473976415,-59.4816525816417,109.378998754864,287.440390239617,239.760465602854,58.3695795191731,-56.2433958293636,-63.45054989247,91.1726476855937,-0.975084406565557,-90.1975632790281, , , , , , , , , , , , , , , , , , , , , , , , , , , , , , , , , , , , , , , , , , , , , , , , , , , , , , , , , , , , ,
-60.2072172544979,-118.134529217529,-57.9273119630308,108.175664666727,285.454508499175,236.513378915672,56.7691659639052,-56.4628015134365,-63.337838462717,89.1708732360132,-1.13995264573352,-88.0309205902797, , , , , , , , , , , , , , , , , , , , , , , , , , , , , , , , , , , , , , , , , , , , , , , , , , , , , , , , , , , , ,
-59.0387843110805,-115.344797302553,-56.3060129914731,106.689756578146,281.997904119219,233.097922061292,54.9204021064984,-55.5294393827835,-63.0062754347364,87.1917908068169,-1.36638565980365,-85.8254051470133, , , , , , , , , , , , , , , , , , , , , , , , , , , , , , , , , , , , , , , , , , , , , , , , , , , , , , , , , , , , ,
-57.8755070492709,-112.583269666109,-54.7077626168382,104.90764039243,279.085782620427,229.486890819913,53.0388696431925,-55.5833619859591,-62.6417231929096,85.22938835769,-1.58387221621635,-83.6455161414736, , , , , , , , , , , , , , , , , , , , , , , , , , , , , , , , , , , , , , , , , , , , , , , , , , , , , , , , , , , , ,
-56.829562715837,-109.880903321755,-53.0513406059181,102.822671943101,275.868853715196,225.660035077182,51.0944077844368,-55.8415035665201,-62.3097168337876,83.355233018796,-1.88911105495943,-81.4661219638366, , , , , , , , , , , , , , , , , , , , , , , , , , , , , , , , , , , , , , , , , , , , , , , , , , , , , , , , , , , , ,
-55.9176755615663,-107.26519436862,-51.3475188070538,100.435319533216,271.065685116325,221.605063632251,49.1614364209031,-55.9115463082236,-61.9084892491457,81.5914349650931,-2.28507837725621,-79.3063565878369, , , , , , , , , , , , , , , , , , , , , , , , , , , , , , , , , , , , , , , , , , , , , , , , , , , , , , , , , , , , ,
-55.1515866043198,-104.764983988635,-49.6133973843153,97.7527783080828,266.671005696198,217.317962312746,47.2836098547104,-54.6528531214558,-61.4278007978002,79.9582852964774,-2.76909461000227,-77.1891906864751, , , , , , , , , , , , , , , , , , , , , , , , , , , , , , , , , , , , , , , , , , , , , , , , , , , , , , , , , , , , ,
-54.5409715631351,-102.414556960839,-47.8735853977042,94.7881309101187,260.424348335907,212.802658305037,45.3265551348236,-54.5245229597722,-60.7720746221575,78.4777642619872,-3.33369308271544,-75.1440711792717, , , , , , , , , , , , , , , , , , , , , , , , , , , , , , , , , , , , , , , , , , , , , , , , , , , , , , , , , , , , ,
-54.0959709969607,-100.256171690431,-46.16020069347,91.5591744012193,253.855090906504,208.070164300787,43.5283528510078,-54.252629908146,-60.1818718530228,77.1760713436956,-3.96788515174529,-73.2081861919503, , , , , , , , , , , , , , , , , , , , , , , , , , , , , , , , , , , , , , , , , , , , , , , , , , , , , , , , , , , , ,
-53.8288217647575,-98.3403974230487,-44.5115756582913,88.0870914102364,246.98810704782,203.137406598328,41.6080438452197,-52.9676499720029,-59.2990842468476,76.0846095939031,-4.65862305323313,-71.42598654067, , , , , , , , , , , , , , , , , , , , , , , , , , , , , , , , , , , , , , , , , , , , , , , , , , , , , , , , , , , , ,
-53.7542233444105,-96.7239848500305,-42.9697615056201,84.3951770112858,239.853314429424,198.025966464182,39.7516132572826,-52.3572723129056,-58.3165985166486,75.2391040972205,-5.39223091939522,-69.8468731778253, , , , , , , , , , , , , , , , , , , , , , , , , , , , , , , , , , , , , , , , , , , , , , , , , , , , , , , , , , , , ,
-53.8882987992176,-95.4654083473448,-41.5771095481272,80.5078217900853,232.484685488105,192.760938967465,37.9595287188472,-51.7751325187651,-57.5403087146962,74.6768535732812,-6.15559462554518,-68.521258947736, , , , , , , , , , , , , , , , , , , , , , , , , , , , , , , , , , , , , , , , , , , , , , , , , , , , , , , , , , , , ,
-54.2462686501633,-94.6186205945398,-40.3723519443767,76.4498930426313,224.91952509699,187.370051971003,36.4038025771599,-51.0508726146624,-56.71007217853,74.4324446223516,-6.9369583528933,-67.4954862694583, , , , , , , , , , , , , , , , , , , , , , , , , , , , , , , , , , , , , , , , , , , , , , , , , , , , , , , , , , , , ,
-54.8391803669403,-94.2258646490301,-39.3866842820899,72.2465745076967,217.198043867829,181.883116014392,34.7637725235329,-49.3609444467349,-55.9611580459977,74.5325225079852,-7.72624804242523,-66.80627446556, , , , , , , , , , , , , , , , , , , , , , , , , , , , , , , , , , , , , , , , , , , , , , , , , , , , , , , , , , , , ,
-55.6701739874434,-94.3105244584209,-38.6403504709776,67.9236508177361,209.363193546029,176.331812126379,33.3102195682084,-48.3287237297431,-54.6364279865663,74.9903492229321,-8.51491175823287,-66.4754374646992, , , , , , , , , , , , , , , , , , , , , , , , , , , , , , , , , , , , , , , , , , , , , , , , , , , , , , , , , , , , ,
-56.7307979932584,-94.8709479200165,-38.1401499267582,63.5081673052815,201.46069378954,170.802327559938,31.9328648203267,-47.3420094668444,-53.7005707062545,75.8008729566374,-9.29532403325011,-66.5055489233873, , , , , , , , , , , , , , , , , , , , , , , , , , , , , , , , , , , , , , , , , , , , , , , , , , , , , , , , , , , , ,
-57.9978416982337,-95.8759942688248,-37.8781525705911,59.0293509153325,193.539155951403,165.45648742088,30.6141400346376,-45.8874469186611,-52.8769004335124,76.9369179835292,-10.0598445638213,-66.8770734197079, , , , , , , , , , , , , , , , , , , , , , , , , , , , , , , , , , , , , , , , , , , , , , , , , , , , , , , , , , , , ,
-59.431072546228,-97.2628230525441,-37.8317505063161,54.5196322039788,185.650186616715,160.007585029941,29.2918364259889,-44.7485763128924,-51.5909101320866,78.346947799386,-10.7996610199559,-67.5472867794301, , , , , , , , , , , , , , , , , , , , , , , , , , , , , , , , , , , , , , , , , , , , , , , , , , , , , , , , , , , , ,
-60.972205501263,-98.9372271754067,-37.9650216741438,50.0155607292262,177.848327381325,154.609240059539,28.01580899585,-43.7173423675744,-50.6074978437658,79.9547163383348,-11.5035919135596,-68.4511244247752, , , , , , , , , , , , , , , , , , , , , , , , , , , , , , , , , , , , , , , , , , , , , , , , , , , , , , , , , , , , ,
-62.5453932401938,-100.776636114819,-38.2312428746256,45.8187802388439,170.190666301946,149.680717243814,26.8879031708287,-42.4059994061864,-49.8647849807226,81.6610146775065,-12.1570751827841,-69.5039394947224, , , , , , , , , , , , , , , , , , , , , , , , , , , , , , , , , , , , , , , , , , , , , , , , , , , , , , , , , , , , ,
-64.0594726564293,-102.635747209962,-38.5762745535327,41.4543501360535,162.735956755859,144.813260382218,25.8226327404239,-41.3045640634988,-48.7159874755321,83.3476099331956,-12.7415990514483,-70.6060108817473, , , , , , , , , , , , , , , , , , , , , , , , , , , , , , , , , , , , , , , , , , , , , , , , , , , , , , , , , , , , ,
-65.4120865972409,-104.354549874343,-38.942463277102,37.2298475727056,155.543113768644,140.119235675991,24.83860608277,-40.2636627563368,-47.8875324867217,84.8833182357918,-13.2348116600694,-71.6485065757224, , , , , , , , , , , , , , , , , , , , , , , , , , , , , , , , , , , , , , , , , , , , , , , , , , , , , , , , , , , , ,
-66.4955996586136,-105.768284271255,-39.2726846126417,33.2019773526448,148.669033406843,135.524410483185,24.0187857219788,-39.1422666253488,-46.8345334809422,86.1319419649344,-13.6114575229859,-72.5204844419485, , , , , , , , , , , , , , , , , , , , , , , , , , , , , , , , , , , , , , , , , , , , , , , , , , , , , , , , , , , , ,
-67.204469232742,-106.71863884677,-39.5141696140284,29.1613202139113,142.165800749548,131.195612363268,23.2488245099086,-38.0532573117749,-45.7688627027015,86.9615540397561,-13.8451498093568,-73.1164042303994, , , , , , , , , , , , , , , , , , , , , , , , , , , , , , , , , , , , , , , , , , , , , , , , , , , , , , , , , , , , ,
-67.443476474459,-107.065274424965,-39.6217979505059,25.6705671251645,136.077501527445,127.21434751051,22.6282371497961,-36.9240576775991,-44.6681387458814,87.2543754497119,-13.9108392619765,-73.3435361877354, , , , , , , , , , , , , , , , , , , , , , , , , , , , , , , , , , , , , , , , , , , , , , , , , , , , , , , , , , , , ,
-67.1360284742639,-106.696620890336,-39.5605924160718,22.5108696646145,130.436988322796,123.61253912862,22.1843670652762,-35.7279716487881,-42.9266709685245,86.9163246822997,-13.787718029096,-73.1286066532036, , , , , , , , , , , , , , , , , , , , , , , , , , , , , , , , , , , , , , , , , , , , , , , , , , , , , , , , , , , , ,
-66.2316514416477,-105.538874750842,-39.3072233091941,19.1101669356131,125.263023963984,120.404213707617,21.9290777126934,-34.4570561786481,-41.509749734761,85.8852630962447,-13.4622140662268,-72.4230490300179, , , , , , , , , , , , , , , , , , , , , , , , , , , , , , , , , , , , , , , , , , , , , , , , , , , , , , , , , , , , ,
-64.7118097357218,-103.562240465939,-38.8504307302178,16.681052967622,120.558209986565,117.587712795125,21.8656224945704,-33.1095296369966,-39.8789860453793,84.1370251008306,-12.930689502752,-71.2063355980786, , , , , , , , , , , , , , , , , , , , , , , , , , , , , , , , , , , , , , , , , , , , , , , , , , , , , , , , , , , , ,
-62.5932955578391,-100.78368362956,-38.1903880717214,14.5813109874706,116.308019328803,115.144287584279,21.9868722530993,-31.6912188277687,-38.0359651999414,81.6884895936998,-12.2014537430589,-69.4870358506409, , , , , , , , , , , , , , , , , , , , , , , , , , , , , , , , , , , , , , , , , , , , , , , , , , , , , , , , , , , , ,
-59.9286428290411,-97.2657882228772,-37.3371453938362,12.8311026827383,112.481116502825,113.038001663755,22.2745000634192,-30.2161673457612,-35.9970427747287,78.5972155259591,-11.2957487176024,-67.3014668083567, , , , , , , , , , , , , , , , , , , , , , , , , , , , , , , , , , , , , , , , , , , , , , , , , , , , , , , , , , , , ,
-56.8033430710807,-93.1117330059142,-36.3083899348336,11.431593139803,109.030988270107,111.217032130392,22.6992130235689,-28.706352574489,-33.7929816393292,74.9575380384974,-10.2474765681235,-64.7100614703739, , , , , , , , , , , , , , , , , , , , , , , , , , , , , , , , , , , , , , , , , , , , , , , , , , , , , , , , , , , , ,
-53.3300648928666,-88.4568899061139,-35.1268250132474,10.2087526518919,105.898743277179,109.61628921471,23.2219821772829,-27.1905750938968,-31.4673003468602,70.8934773994903,-9.10161993980959,-61.7918574596807, , , , , , , , , , , , , , , , , , , , , , , , , , , , , , , , , , , , , , , , , , , , , , , , , , , , , , , , , , , , ,
-49.6405213493019,-83.4580059249339,-33.8174845756321,9.27063680716454,103.016794551536,108.1611081905,23.7960920668659,-25.7026891741784,-29.0735654105158,66.5492636371179,-7.91151838683491,-58.637745250283, , , , , , , , , , , , , , , , , , , , , , , , , , , , , , , , , , , , , , , , , , , , , , , , , , , , , , , , , , , , ,
-45.8759725142599,-78.2812389125548,-32.4052663982949,8.31332624781995,100.313041944488,106.771637171749,24.3697381435209,-24.2794166324025,-26.6719650673204,62.0786057134073,-6.73535305798249,-55.3432526554248, , , , , , , , , , , , , , , , , , , , , , , , , , , , , , , , , , , , , , , , , , , , , , , , , , , , , , , , , , , , ,
-42.1774963490402,-73.090392475856,-30.9128961268159,7.56650710398795,97.7151423630244,105.36748172675,24.8888655676623,-22.9580122890531,-24.3255411912698,57.6339444124481,-5.63230011111214,-52.0016443013359, , , , , , , , , , , , , , , , , , , , , , , , , , , , , , , , , , , , , , , , , , , , , , , , , , , , , , , , , , , , ,
-38.6770771341808,-68.036527064138,-29.3594499299573,6.58287471342478,95.1544938787887,103.872183866868,25.2999701729512,-21.7740251994941,-22.0964324016779,53.3568020991593,-4.65881360211171,-48.6979884970476, , , , , , , , , , , , , , , , , , , , , , , , , , , , , , , , , , , , , , , , , , , , , , , , , , , , , , , , , , , , ,
-35.4902897864977,-63.2497721878218,-27.7594824013242,5.75477662388854,92.5696458234574,102.217192876002,25.5526528068642,-20.7593398363582,-20.0424125526313,49.3700309871597,-3.86540369258671,-45.504627294573, , , , , , , , , , , , , , , , , , , , , , , , , , , , , , , , , , , , , , , , , , , , , , , , , , , , , , , , , , , , ,
-32.7109924294066,-58.8337271093412,-26.1227346799347,4.75180072942882,89.9089553782083,100.345096223532,25.6018031410873,-19.9406067602423,-18.2139157218031,45.7723597693739,-3.2941288747359,-42.478230894638, , , , , , , , , , , , , , , , , , , , , , , , , , , , , , , , , , , , , , , , , , , , , , , , , , , , , , , , , , , , ,
-30.4080823653323,-54.8624224465276,-24.4543400811954,3.63213363539952,87.1324222850701,98.2119902714232,25.4093653280473,-19.3381018713655,-16.6516430181695,42.63525240593,-2.97687114206846,-39.6583812638615, , , , , , , , , , , , , , , , , , , , , , , , , , , , , , , , , , , , , , , , , , , , , , , , , , , , , , , , , , , , ,
-28.6241046473867,-51.3795122094506,-22.755407562064,2.16818980264249,84.2127311080151,95.7889635982187,24.9456931037698,-18.9650012074039,-15.3847718077818,40.0018084284186,-2.93434854266135,-37.0674598857573, , , , , , , , , , , , , , , , , , , , , , , , , , , , , , , , , , , , , , , , , , , , , , , , , , , , , , , , , , , , ,
-27.3753668843431,-48.3992181952351,-21.0238513108922,0.392773799332893,81.1355982000769,93.0627318337804,24.1905309281356,-18.8270304077792,-14.4297507914407,37.8872925397891,-3.17575778672543,-34.7115347530636, , , , , , , , , , , , , , , , , , , , , , , , , , , , , , , , , , , , , , , , , , , , , , , , , , , , , , , , , , , , ,
-26.6531997796942,-45.864848317075,-19.2116485373809,-1.31821264253629,77.899547584147,90.0355013581627,23.1336615064195,-18.9224384621358,-13.7896603274084,36.2590240483846,-3.72077562115664,-32.5382484272279, , , , , , , , , , , , , , , , , , , , , , , , , , , , , , , , , , , , , , , , , , , , , , , , , , , , , , , , , , , , ,
-26.4260687932101,-43.8266798363282,-17.4006110431182,-3.20491050582425,74.5152310307656,86.7241557783938,21.7752453444004,-19.2422448872359,-13.4541274528573,35.1263743147691,-4.51272887504594,-30.6136454397232, , , , , , , , , , , , , , , , , , , , , , , , , , , , , , , , , , , , , , , , , , , , , , , , , , , , , , , , , , , , ,
-26.6423389061249,-41.9907277386656,-15.3483888325408,-5.2327608712009,71.0043789571168,83.1588622100757,20.1258530309507,-19.7707170686386,-13.3997949862194,34.3165333223952,-5.64697503679204,-28.6695582856032, , , , , , , , , , , , , , , , , , , , , , , , , , , , , , , , , , , , , , , , , , , , , , , , , , , , , , , , , , , , ,
-27.2335816340774,-40.6687255749122,-13.4351439408349,-7.35416073298965,67.3984365993047,79.3811915631538,18.2061637658625,-20.4860517632168,-13.5913487990792,33.9511536044947,-6.89921884662122,-27.0519347578735, , , , , , , , , , , , , , , , , , , , , , , , , , , , , , , , , , , , , , , , , , , , , , , , , , , , , , , , , , , , ,
-28.1183645682347,-39.0606919277645,-10.9423273595299,-9.87465281428261,63.7369143192682,75.4418432807883,16.0462855834616,-21.3612534528856,-13.9831016911323,33.5895282479996,-8.58801860435239,-25.0015096436472, , , , , , , , , , , , , , , , , , , , , , , , , , , , , , , , , , , , , , , , , , , , , , , , , , , , , , , , , , , , ,
-29.206469387462,-37.6378916992326,-8.43142231177074,-12.444771136274,60.0654657353944,71.3980618235629,13.6846537906456,-22.3652112933783,-14.5211127369554,33.4221805433473,-10.3875235378456,-23.0346570055017, , , , , , , , , , , , , , , , , , , , , , , , , , , , , , , , , , , , , , , , , , , , , , , , , , , , , , , , , , , , ,
-30.4034567165045,-36.2815817485501,-5.87812503204578,-14.6335468508017,56.4337029320334,67.3108288582235,11.1664832994431,-23.4639762761482,-15.1457932086903,33.3425192325273,-12.2626658422293,-21.079853390298, , , , , , , , , , , , , , , , , , , , , , , , , , , , , , , , , , , , , , , , , , , , , , , , , , , , , , , , , , , , ,
-31.6154578706239,-35.3440812321052,-3.7286233614814,-16.6252982597506,52.8927662086441,63.2419139399899,8.54177999328467,-24.6222363313102,-15.7949207437901,33.4797695513645,-13.9434172545712,-19.5363522967933, , , , , , , , , , , , , , , , , , , , , , , , , , , , , , , , , , , , , , , , , , , , , , , , , , , , , , , , , , , , ,
-32.7540377287119,-33.8424844568851,-1.08844672817336,-18.5687502233675,49.492690999674,59.2508736804161,5.8629541675875,-25.8049747814447,-16.4069481581688,33.2982610927985,-15.8327955002692,-17.4654655925292, , , , , , , , , , , , , , , , , , , , , , , , , , , , , , , , , , , , , , , , , , , , , , , , , , , , , , , , , , , , ,
-33.7409436721593,-32.5806468864247,1.16029678573448,-20.2073249927512,46.279655859066,55.3921065769816,3.18212808569492,-26.9792673228019,-16.9244469458596,33.160795279292,-17.4506202289469,-15.7101750503451, , , , , , , , , , , , , , , , , , , , , , , , , , , , , , , , , , , , , , , , , , , , , , , , , , , , , , , , , , , , ,
-34.5125381630719,-30.9439927419488,3.568545421123,-21.4818075506186,43.2932415016746,51.7120900570468,0.548284982922347,-28.1161277444864,-17.2974770382626,32.7282654525103,-19.0405417920974,-13.6877236604129, , , , , , , , , , , , , , , , , , , , , , , , , , , , , , , , , , , , , , , , , , , , , , , , , , , , , , , , , , , , ,
-35.0237087199885,-29.1457731705722,5.87793554941619,-22.675840736767,40.5638680135593,48.2469385729092,-1.99554553271057,-29.1922703265466,-17.4866420186456,32.0847409452803,-20.4508221347023,-11.633918810578, , , , , , , , , , , , , , , , , , , , , , , , , , , , , , , , , , , , , , , , , , , , , , , , , , , , , , , , , , , , ,
-35.2510438117902,-26.7512439895169,8.49979982227311,-23.1621272063069,38.1106002248558,45.0204254380125,-4.41484344759889,-30.1916320871947,-17.4655834981733,31.0011439006535,-21.8754218170316,-9.12572208362191, , , , , , , , , , , , , , , , , , , , , , , , , , , , , , , , , , , , , , , , , , , , , , , , , , , , , , , , , , , , ,
-35.1950370144393,-24.1524562801669,11.0425807342723,-23.56473103759,35.9395218799609,42.0426110015215,-6.68567048574185,-31.1064927990749,-17.2226887407988,29.6737466473031,-23.1188088743558,-6.55493777294732, , , , , , , , , , , , , , , , , , , , , , , , , , , , , , , , , , , , , , , , , , , , , , , , , , , , , , , , , , , , ,
-34.8810426036973,-21.5521464098936,13.3288961938037,-23.4811114365545,34.0428770104956,39.3092169421561,-8.79605256894454,-31.9380427037012,-16.7618281354306,28.2165945067954,-24.1049693987505,-4.11162510804494, , , , , , , , , , , , , , , , , , , , , , , , , , , , , , , , , , , , , , , , , , , , , , , , , , , , , , , , , , , , ,
-34.3586944707263,-18.1807279882098,16.1779664825163,-23.3720734879948,32.3991540359313,36.8018743119293,-10.7465064049073,-32.6962787262958,-16.1020032882907,26.269711229468,-25.2683304766213,-1.00138075284674, , , , , , , , , , , , , , , , , , , , , , , , , , , , , , , , , , , , , , , , , , , , , , , , , , , , , , , , , , , , ,
-33.6995558107178,-15.3515596648536,18.3479961458641,-23.0703744361186,30.9742329452459,34.4893389142885,-12.5496045555258,-33.3991608053368,-15.2758710576605,24.5255577377857,-26.023775978291,1.4982182405053, , , , , , , , , , , , , , , , , , , , , , , , , , , , , , , , , , , , , , , , , , , , , , , , , , , , , , , , , , , , ,
-32.9928976415367,-12.3727758246832,20.6201218168534,-22.8687395052577,29.723620550359,32.3296999127,-14.2285544281023,-34.0710280694563,-14.3272073507373,22.6828367331099,-26.8065097291951,4.12367299608512, , , , , , , , , , , , , , , , , , , , , , , , , , , , , , , , , , , , , , , , , , , , , , , , , , , , , , , , , , , , ,
-32.3396933181239,-9.75918703515201,22.5805062829717,-22.0981849580307,28.5956686431875,30.2735053231166,-15.8148632744552,-34.7403572388521,-13.3074786470028,21.0494401766379,-27.4600998005478,6.41065962390987, , , , , , , , , , , , , , , , , , , , , , , , , , , , , , , , , , , , , , , , , , , , , , , , , , , , , , , , , , , , ,
-31.845135919272,-7.2407494331053,24.6043864861666,-21.3540721045434,27.5355285047737,28.26760690196,-17.3452644570259,-35.4370366235522,-12.2717906712739,19.5429426761886,-28.2247612027193,8.68181852653067, , , , , , , , , , , , , , , , , , , , , , , , , , , , , , , , , , , , , , , , , , , , , , , , , , , , , , , , , , , , ,
-31.6101967526756,-4.69598082318581,26.9142159294897,-20.6461220211166,26.4894789691527,26.2594160764332,-18.8581757463981,-36.1894092744773,-11.2745665723635,18.1530887879307,-29.2622063410826,11.109117553152, , , , , , , , , , , , , , , , , , , , , , , , , , , , , , , , , , , , , , , , , , , , , , , , , , , , , , , , , , , , ,
-31.7229030693543,-3.32555807831909,28.3973449910351,-20.0561352883034,25.4092085907708,24.2011956897854,-20.3900252050607,-37.0213799277117,-10.3653459063536,17.5242305738367,-30.0601240301947,12.535893456358, , , , , , , , , , , , , , , , , , , , , , , , , , , , , , , , , , , , , , , , , , , , , , , , , , , , , , , , , , , , ,
-32.2500958625835,-2.55489986094551,29.6951960016379,-19.6037684857587,24.2556496982564,22.0540122470812,-21.9717916759832,-37.9498660409538,-9.58507259711222,17.4024978617645,-30.9726459321107,13.5701480703462, , , , , , , , , , , , , , , , , , , , , , , , , , , , , , , , , , , , , , , , , , , , , , , , , , , , , , , , , , , , ,
-33.2304375598878,-2.43827413077824,30.7921634291095,-19.4663270770679,23.002037888398,19.791033688477,-23.6260640517014,-38.9828156742232,-8.96316401353623,17.834355845333,-32.0113004944986,14.1769446491656, , , , , , , , , , , , , , , , , , , , , , , , , , , , , , , , , , , , , , , , , , , , , , , , , , , , , , , , , , , , ,
-34.6693909635421,-2.91328540173366,31.7561055618083,-19.3647274264974,21.6359686936367,17.3999414713715,-25.3648524251728,-40.117948585013,-8.51555883154559,18.7913381826379,-33.2127482626752,14.4214100800374, , , , , , , , , , , , , , , , , , , , , , , , , , , , , , , , , , , , , , , , , , , , , , , , , , , , , , , , , , , , ,
-36.5367894512915,-4.0666188231365,32.4701706281549,-19.388352762021,20.1603090697934,14.8842922773338,-27.1883162166666,-41.3423311647877,-8.24386298803249,20.301704137214,-34.5034800397232,14.2017759025092, , , , , , , , , , , , , , , , , , , , , , , , , , , , , , , , , , , , , , , , , , , , , , , , , , , , , , , , , , , , ,
-38.7674470191662,-5.45409329681876,33.3133537223473,-19.6869762103225,18.5928835622079,12.2637035798635,-29.0845206081279,-42.6328697348518,-8.13565823379991,22.1107701579924,-36.0404003707567,13.9296302127643, , , , , , , , , , , , , , , , , , , , , , , , , , , , , , , , , , , , , , , , , , , , , , , , , , , , , , , , , , , , ,
-41.2649933228017,-7.55496660346946,33.7100267193322,-19.9099860299773,16.9649120734105,9.57277547225725,-31.0302791549021,-43.9577707166935,-8.16598357687655,24.4099799631356,-37.4875100210669,13.0775300579314, , , , , , , , , , , , , , , , , , , , , , , , , , , , , , , , , , , , , , , , , , , , , , , , , , , , , , , , , , , , ,
-43.908766010343,-9.43335765559234,34.4754083547506,-20.0903568566113,15.3182600538305,6.85873669382864,-32.9930632376069,-45.2789406811612,-8.29991753554406,26.6710618329677,-39.1920871825468,12.5210253495791, , , , , , , , , , , , , , , , , , , , , , , , , , , , , , , , , , , , , , , , , , , , , , , , , , , , , , , , , , , , ,
-46.5631948373953,-11.8832053959216,34.6799894414735,-20.2292399245368,13.701687092067,4.17793029609164,-34.9338474463326,-46.555181321205,-8.49607245842258,29.2232001166584,-40.6215921394344,11.398392022776, , , , , , , , , , , , , , , , , , , , , , , , , , , , , , , , , , , , , , , , , , , , , , , , , , , , , , , , , , , , ,
-49.0887559578086,-14.1488163947033,34.9399395631052,-20.2698801451962,12.1664235353146,1.59140999626568,-36.8106328125506,-47.7459015018879,-8.71068542948233,31.618786176256,-42.0143477604569,10.3955615842009, , , , , , , , , , , , , , , , , , , , , , , , , , , , , , , , , , , , , , , , , , , , , , , , , , , , , , , , , , , , ,
-51.353363447784,-16.1172729685422,35.2360904792417,-20.1610111978817,10.7615192366377,-0.839945063794419,-38.5822865661957,-48.8149610504875,-8.9018929639605,33.7353182081631,-43.2947269635128,9.55940875534974, , , , , , , , , , , , , , , , , , , , , , , , , , , , , , , , , , , , , , , , , , , , , , , , , , , , , , , , , , , , ,
-53.2430568121172,-17.3516244270982,35.8914323850188,-19.8610534266612,9.52945326619332,-3.06031343161895,-40.2122915437082,-49.7342113386422,-9.03374067229537,35.2973406196077,-44.567244598568,9.2699039789603, , , , , , , , , , , , , , , , , , , , , , , , , , , , , , , , , , , , , , , , , , , , , , , , , , , , , , , , , , , , ,
